0.639	5.58777	0	0	-0.892341	0.040267	-1.34171	0.171577	-1.12532	-0.58898	-0.250076	-0.251711	0.512615	-0.317203	0.826017	-0.439148	0.386633	-0.236214	-0.032499	-0.457247	-0.290469	0.20392	0.213891	-0.25069	-0.374801	-0.331415	-0.272752	-0.234438	-0.303616	0.121972	0.460937	0.827417	0.115548	0.833202	-0.418322	-0.351796	
0.642331	5.58014	0	0	-0.899892	0.0182677	-1.35549	0.152626	-1.13595	-0.611985	-0.256982	-0.28023	0.479174	-0.295352	0.800472	-0.478484	0.349759	-0.210477	-0.0518363	-0.499787	-0.336912	0.23591	0.195084	-0.288073	-0.395666	-0.361351	-0.286199	-0.269981	-0.315985	0.0988862	0.447793	0.807836	0.091148	0.804314	-0.436905	-0.375614	
0.645436	5.57098	0	0	-0.907444	-0.0037315	-1.36928	0.133675	-1.14658	-0.63499	-0.263887	-0.30875	0.445733	-0.273501	0.774926	-0.517819	0.312885	-0.18474	-0.0711735	-0.542326	-0.383355	0.2679	0.176277	-0.325456	-0.416532	-0.391288	-0.299646	-0.305524	-0.328353	0.0758005	0.434649	0.788255	0.066748	0.775426	-0.455487	-0.399431	
0.648239	5.56488	0	0	-0.914996	-0.0257307	-1.38306	0.114723	-1.1572	-0.657995	-0.270792	-0.337269	0.412292	-0.25165	0.749381	-0.557155	0.276011	-0.159003	-0.0905108	-0.584866	-0.429799	0.29989	0.15747	-0.362838	-0.437397	-0.421224	-0.313093	-0.341067	-0.340722	0.0527148	0.421505	0.768674	0.042348	0.746538	-0.474069	-0.423249	
0.650662	5.56183	0	0	-0.922547	-0.04773	-1.39684	0.095772	-1.16783	-0.681	-0.277698	-0.365788	0.378851	-0.229799	0.723835	-0.596491	0.239137	-0.133266	-0.109848	-0.627405	-0.476242	0.33188	0.138663	-0.400221	-0.458263	-0.45116	-0.32654	-0.37661	-0.353091	0.029629	0.408361	0.749093	0.017948	0.71765	-0.492652	-0.447067	
0.65263	5.55267	0	0	-0.923238	-0.0674095	-1.40724	0.0770375	-1.17611	-0.70169	-0.295624	-0.386948	0.3499	-0.209237	0.701915	-0.623288	0.210701	-0.113042	-0.129063	-0.64911	-0.509592	0.353672	0.124041	-0.421318	-0.475702	-0.472695	-0.340592	-0.401012	-0.359892	0.014111	0.396601	0.735186	0.00040975	0.697639	-0.498395	-0.468885	
0.654064	5.54504	0	0	-0.923929	-0.087089	-1.41763	0.058303	-1.18439	-0.722379	-0.31355	-0.408108	0.320948	-0.188675	0.679995	-0.650084	0.182265	-0.092818	-0.148278	-0.670815	-0.542942	0.375463	0.109419	-0.442414	-0.493142	-0.494229	-0.354645	-0.425413	-0.366693	-0.001407	0.384841	0.72128	-0.0171285	0.677629	-0.504139	-0.490703	
0.654888	5.54047	0	0	-0.92462	-0.106769	-1.42803	0.0395685	-1.19267	-0.743069	-0.331475	-0.429268	0.291997	-0.168114	0.658074	-0.676881	0.153829	-0.072594	-0.167492	-0.69252	-0.576292	0.397254	0.094797	-0.46351	-0.510581	-0.515764	-0.368698	-0.449815	-0.373494	-0.016925	0.373081	0.707373	-0.0346667	0.657618	-0.509883	-0.512521	
0.655025	5.53589	0	0	-0.925311	-0.126448	-1.43843	0.020834	-1.20094	-0.763758	-0.349401	-0.450428	0.263046	-0.147552	0.636154	-0.703678	0.125393	-0.05237	-0.186707	-0.714225	-0.609642	0.419046	0.080175	-0.484607	-0.52802	-0.537298	-0.38275	-0.474217	-0.380295	-0.032443	0.361321	0.693467	-0.052205	0.637608	-0.515626	-0.534339	
0.654399	5.54352	0	0	-0.937141	-0.125415	-1.44971	0.0143235	-1.21201	-0.767684	-0.369313	-0.453795	0.245909	-0.137998	0.617833	-0.718183	0.106826	-0.0418815	-0.199472	-0.726359	-0.636832	0.436813	0.071286	-0.494073	-0.544525	-0.552399	-0.389944	-0.490422	-0.385845	-0.0398815	0.356624	0.687919	-0.0589652	0.628955	-0.530755	-0.529556	
0.652932	5.52368	0	0	-0.948972	-0.124382	-1.461	0.007813	-1.22307	-0.77161	-0.389224	-0.457162	0.228772	-0.128445	0.599512	-0.732687	0.0882595	-0.031393	-0.212236	-0.738493	-0.664022	0.45458	0.062397	-0.503539	-0.56103	-0.5675	-0.397139	-0.506628	-0.391394	-0.04732	0.351927	0.682371	-0.0657255	0.620302	-0.545883	-0.524774	
0.650556	5.51758	0	0	-0.960803	-0.123349	-1.47228	0.0013025	-1.23413	-0.775535	-0.409135	-0.460529	0.211634	-0.118891	0.581191	-0.747192	0.0696927	-0.0209045	-0.225	-0.750627	-0.691213	0.472346	0.053508	-0.513005	-0.577536	-0.582601	-0.404334	-0.522834	-0.396944	-0.0547585	0.347229	0.676824	-0.0724858	0.611649	-0.561011	-0.519992	
0.647362	5.51605	0	0	-0.972633	-0.122316	-1.48357	-0.005208	-1.2452	-0.779461	-0.429047	-0.463896	0.194497	-0.109338	0.56287	-0.761697	0.051126	-0.010416	-0.237765	-0.762761	-0.718403	0.490113	0.044619	-0.522471	-0.594041	-0.597702	-0.411528	-0.539039	-0.402494	-0.062197	0.342532	0.671276	-0.079246	0.602996	-0.57614	-0.515209	
0.643574	5.50995	0	0	-0.978291	-0.138672	-1.48814	-0.011462	-1.24879	-0.795666	-0.451134	-0.472793	0.184289	-0.102668	0.539098	-0.760563	0.029852	0.00184225	-0.247283	-0.763353	-0.739491	0.503893	0.0366418	-0.520648	-0.607156	-0.604617	-0.423512	-0.541638	-0.40453	-0.0564427	0.345871	0.671247	-0.0728605	0.598823	-0.59593	-0.497175	
0.639423	5.50995	0	0	-0.983949	-0.155027	-1.49271	-0.017716	-1.25238	-0.811872	-0.47322	-0.481691	0.17408	-0.0959975	0.515326	-0.759429	0.008578	0.0141005	-0.256802	-0.763945	-0.76058	0.517672	0.0286645	-0.518825	-0.620271	-0.611532	-0.435496	-0.544238	-0.406566	-0.0506885	0.349211	0.671218	-0.066475	0.594651	-0.61572	-0.479141	
0.635138	5.50842	0	0	-0.989606	-0.171382	-1.49728	-0.02397	-1.25597	-0.828078	-0.495306	-0.490588	0.163872	-0.0893272	0.491554	-0.758294	-0.012696	0.0263588	-0.26632	-0.764537	-0.781669	0.531451	0.0206872	-0.517002	-0.633386	-0.618447	-0.44748	-0.546837	-0.408602	-0.0449343	0.35255	0.671189	-0.0600895	0.590479	-0.63551	-0.461107	
0.630947	5.50079	0	0	-0.995264	-0.187738	-1.50185	-0.030224	-1.25956	-0.844283	-0.517393	-0.499486	0.153664	-0.082657	0.467782	-0.75716	-0.03397	0.038617	-0.275838	-0.765129	-0.802757	0.545231	0.01271	-0.515179	-0.646501	-0.625362	-0.459464	-0.549436	-0.410638	-0.03918	0.35589	0.67116	-0.053704	0.586306	-0.6553	-0.443073	
0.627044	5.50995	0	0	-0.986211	-0.202547	-1.5052	-0.0303455	-1.2553	-0.856324	-0.515357	-0.5171	0.158767	-0.085991	0.460981	-0.759904	-0.0367198	0.0404137	-0.272649	-0.760401	-0.823038	0.55684	0.00869625	-0.517638	-0.660462	-0.638545	-0.469863	-0.565531	-0.421267	-0.0322347	0.339572	0.679669	-0.072846	0.598814	-0.666358	-0.430741	
0.623589	5.48706	0	0	-0.977159	-0.217355	-1.50854	-0.030467	-1.25104	-0.868364	-0.513321	-0.534714	0.163869	-0.089325	0.45418	-0.762649	-0.0394695	0.0422105	-0.269459	-0.755674	-0.843318	0.56845	0.0046825	-0.520097	-0.674424	-0.651728	-0.480262	-0.581625	-0.431897	-0.0252895	0.323253	0.688179	-0.091988	0.611322	-0.677415	-0.418409	
0.620737	5.49316	0	0	-0.968106	-0.232164	-1.51189	-0.0305885	-1.24678	-0.880405	-0.511285	-0.552327	0.168971	-0.092659	0.44738	-0.765393	-0.0422192	0.0440072	-0.266269	-0.750946	-0.863598	0.580059	0.00066875	-0.522556	-0.688385	-0.664911	-0.490661	-0.597719	-0.442526	-0.0183442	0.306935	0.696689	-0.11113	0.62383	-0.688473	-0.406078	
0.618647	5.48248	0	0	-0.959053	-0.246973	-1.51523	-0.03071	-1.24252	-0.892446	-0.509249	-0.569941	0.174074	-0.095993	0.440579	-0.768137	-0.044969	0.045804	-0.26308	-0.746219	-0.883879	0.591668	-0.003345	-0.525015	-0.702346	-0.678094	-0.50106	-0.613814	-0.453155	-0.011399	0.290617	0.705198	-0.130272	0.636338	-0.699531	-0.393746	
0.617464	5.49774	0	0	-0.959053	-0.246973	-1.50854	-0.0304673	-1.24422	-0.887632	-0.500468	-0.57103	0.1912	-0.105539	0.437271	-0.758787	-0.0347208	0.0407503	-0.252717	-0.734225	-0.898874	0.601466	-0.00094875	-0.524887	-0.709707	-0.683554	-0.505956	-0.627214	-0.454394	-0.0194343	0.283598	0.696879	-0.140969	0.625071	-0.69718	-0.400388	
0.617099	5.49164	0	0	-0.959053	-0.246973	-1.50185	-0.0302245	-1.24592	-0.882818	-0.491687	-0.57212	0.208327	-0.115086	0.433963	-0.749437	-0.0244725	0.0356965	-0.242353	-0.72223	-0.913868	0.611263	0.0014475	-0.52476	-0.717068	-0.689015	-0.510852	-0.640613	-0.455632	-0.0274695	0.276579	0.68856	-0.151666	0.613803	-0.69483	-0.40703	
0.617259	5.45196	0	0	-0.959053	-0.246973	-1.49515	-0.0299818	-1.24763	-0.878003	-0.482907	-0.573209	0.225454	-0.124632	0.430654	-0.740088	-0.0142243	0.0306427	-0.231989	-0.710236	-0.928863	0.621061	0.00384375	-0.524632	-0.724429	-0.694476	-0.515749	-0.654013	-0.456871	-0.0355048	0.269559	0.680241	-0.162362	0.602536	-0.69248	-0.413673	
0.617646	5.45959	0	0	-0.959053	-0.246973	-1.48846	-0.029739	-1.24933	-0.873189	-0.474126	-0.574298	0.24258	-0.134179	0.427346	-0.730738	-0.003976	0.025589	-0.221626	-0.698242	-0.943858	0.630859	0.00624	-0.524504	-0.73179	-0.699936	-0.520645	-0.667413	-0.45811	-0.04354	0.26254	0.671922	-0.173059	0.591269	-0.690129	-0.420315	
0.617961	5.42297	0	0	-0.959053	-0.246973	-1.49393	-0.0238523	-1.24529	-0.875829	-0.480658	-0.567704	0.260501	-0.145889	0.412832	-0.711659	0.0097995	0.0165877	-0.21602	-0.686513	-0.950604	0.63691	0.00629725	-0.517764	-0.733455	-0.703978	-0.521007	-0.675461	-0.451784	-0.0498835	0.263166	0.660777	-0.150365	0.568631	-0.683772	-0.419362	
0.61792	5.47485	0	0	-0.959053	-0.246973	-1.4994	-0.0179655	-1.24125	-0.87847	-0.48719	-0.561111	0.278421	-0.157599	0.398319	-0.69258	0.023575	0.0075865	-0.210413	-0.674784	-0.957351	0.642961	0.0063545	-0.511023	-0.73512	-0.70802	-0.521368	-0.683509	-0.445457	-0.056227	0.263792	0.649632	-0.127672	0.545993	-0.677415	-0.418409	
0.617451	5.45349	0	0	-0.959053	-0.246973	-1.50488	-0.0120787	-1.23721	-0.88111	-0.493722	-0.554517	0.296342	-0.169308	0.383806	-0.6735	0.0373505	-0.00141475	-0.204807	-0.663055	-0.964098	0.649012	0.00641175	-0.504283	-0.736784	-0.712061	-0.521729	-0.691558	-0.439131	-0.0625705	0.264418	0.638486	-0.104979	0.523355	-0.671058	-0.417457	
0.616643	5.45196	0	0	-0.959053	-0.246973	-1.51035	-0.006192	-1.23317	-0.88375	-0.500254	-0.547923	0.314263	-0.181018	0.369292	-0.654421	0.051126	-0.010416	-0.199201	-0.651326	-0.970844	0.655063	0.006469	-0.497543	-0.738449	-0.716103	-0.522091	-0.699606	-0.432804	-0.068914	0.265044	0.627341	-0.082285	0.500717	-0.664701	-0.416504	
0.61559	5.44739	0	0	-0.96386	-0.254933	-1.51264	-0.00931925	-1.24273	-0.883053	-0.515651	-0.551803	0.328896	-0.188935	0.365976	-0.645049	0.0669295	-0.0190992	-0.195981	-0.639719	-0.967849	0.653106	0.0065245	-0.490795	-0.738449	-0.716103	-0.520186	-0.704989	-0.422175	-0.0758593	0.266031	0.624551	-0.0627455	0.50097	-0.649612	-0.421253	
0.614383	5.47027	0	0	-0.968667	-0.262892	-1.51492	-0.0124465	-1.25229	-0.882356	-0.531048	-0.555683	0.34353	-0.196852	0.362659	-0.635676	0.082733	-0.0277825	-0.192761	-0.628112	-0.964854	0.65115	0.00658	-0.484047	-0.738449	-0.716103	-0.518282	-0.710372	-0.411546	-0.0828045	0.267018	0.62176	-0.043206	0.501224	-0.634522	-0.426003	
0.613124	5.46112	0	0	-0.973474	-0.270852	-1.5172	-0.0155737	-1.26185	-0.88166	-0.546444	-0.559564	0.358163	-0.204769	0.359343	-0.626304	0.0985365	-0.0364657	-0.189542	-0.616505	-0.96186	0.649193	0.0066355	-0.477298	-0.738449	-0.716103	-0.516377	-0.715755	-0.400916	-0.0897498	0.268006	0.61897	-0.0236665	0.501477	-0.619432	-0.430752	
0.611997	5.4657	0	0	-0.978281	-0.278812	-1.51948	-0.018701	-1.27141	-0.880963	-0.561841	-0.563444	0.372796	-0.212686	0.356026	-0.616931	0.11434	-0.045149	-0.186322	-0.604898	-0.958865	0.647236	0.006691	-0.47055	-0.738449	-0.716103	-0.514472	-0.721138	-0.390287	-0.096695	0.268993	0.61618	-0.004127	0.50173	-0.604343	-0.435501	
0.611235	5.45959	0	0	-0.981047	-0.292516	-1.52405	-0.0249475	-1.27586	-0.894684	-0.571761	-0.570874	0.3864	-0.223219	0.343114	-0.613298	0.119867	-0.0487605	-0.186322	-0.604898	-0.958865	0.647236	0.004347	-0.463926	-0.737662	-0.718326	-0.522815	-0.715686	-0.390287	-0.096695	0.277626	0.610539	0.00266375	0.510338	-0.604343	-0.435501	
0.611073	5.44586	0	0	-0.983812	-0.306219	-1.52861	-0.031194	-1.28031	-0.908405	-0.581681	-0.578305	0.400003	-0.233753	0.330202	-0.609666	0.125394	-0.052372	-0.186322	-0.604898	-0.958865	0.647236	0.002003	-0.457302	-0.736876	-0.720549	-0.531158	-0.710235	-0.390287	-0.096695	0.286259	0.604898	0.0094545	0.518946	-0.604343	-0.435501	
0.611745	5.45196	0	0	-0.986578	-0.319923	-1.53317	-0.0374405	-1.28475	-0.922125	-0.591601	-0.585735	0.413606	-0.244286	0.31729	-0.606034	0.130922	-0.0559835	-0.186322	-0.604898	-0.958865	0.647236	-0.000341	-0.450677	-0.73609	-0.722771	-0.539501	-0.704784	-0.390287	-0.096695	0.294892	0.599257	0.0162453	0.527555	-0.604343	-0.435501	
0.613408	5.45654	0	0	-0.989344	-0.333627	-1.53774	-0.043687	-1.2892	-0.935846	-0.601521	-0.593166	0.42721	-0.25482	0.304378	-0.602401	0.136449	-0.059595	-0.186322	-0.604898	-0.958865	0.647236	-0.002685	-0.444053	-0.735303	-0.724994	-0.547844	-0.699332	-0.390287	-0.096695	0.303525	0.593616	0.023036	0.536163	-0.604343	-0.435501	
0.615651	5.39551	0	0	-0.987169	-0.350524	-1.53243	-0.0586687	-1.29047	-0.949761	-0.610359	-0.603587	0.439319	-0.261088	0.293699	-0.605023	0.146757	-0.064687	-0.187921	-0.607284	-0.967846	0.653104	-0.00591475	-0.448732	-0.745886	-0.73003	-0.553686	-0.70998	-0.398884	-0.0954948	0.290579	0.602075	0.0118248	0.553943	-0.623441	-0.438342	
0.617805	5.42908	0	0	-0.984994	-0.367421	-1.52713	-0.0736505	-1.29174	-0.963677	-0.619198	-0.614007	0.451427	-0.267355	0.283021	-0.607644	0.157065	-0.069779	-0.18952	-0.609669	-0.976827	0.658973	-0.0091445	-0.453411	-0.756469	-0.735066	-0.559527	-0.720628	-0.40748	-0.0942945	0.277633	0.610534	0.0006135	0.571723	-0.642539	-0.441183	
0.619202	5.4306	0	0	-0.98282	-0.384318	-1.52183	-0.0886322	-1.29301	-0.977592	-0.628036	-0.624427	0.463536	-0.273622	0.272342	-0.610265	0.167374	-0.074871	-0.19112	-0.612054	-0.985809	0.664842	-0.0123742	-0.45809	-0.767052	-0.740101	-0.565369	-0.731276	-0.416077	-0.0930943	0.264687	0.618994	-0.0105977	0.589503	-0.661637	-0.444023	
0.619172	5.42602	0	0	-0.980645	-0.401215	-1.51653	-0.103614	-1.29428	-0.991507	-0.636874	-0.634848	0.475645	-0.27989	0.261663	-0.612887	0.177682	-0.079963	-0.192719	-0.61444	-0.99479	0.67071	-0.015604	-0.462769	-0.777635	-0.745137	-0.571211	-0.741924	-0.424673	-0.091894	0.251741	0.627453	-0.021809	0.607283	-0.680735	-0.446864	
0.617166	5.43671	0	0	-0.983558	-0.403727	-1.51987	-0.103731	-1.29746	-0.991271	-0.647719	-0.627762	0.489287	-0.290449	0.25382	-0.612556	0.186747	-0.0875295	-0.195128	-0.621434	-0.997781	0.672665	-0.0196125	-0.465237	-0.784187	-0.752786	-0.57289	-0.755262	-0.434501	-0.0987048	0.249038	0.616362	-0.0209895	0.591072	-0.70376	-0.457276	
0.613394	5.44128	0	0	-0.986471	-0.406239	-1.52322	-0.103848	-1.30064	-0.991035	-0.658563	-0.620676	0.50293	-0.301007	0.245977	-0.612226	0.195811	-0.095096	-0.197537	-0.628429	-1.00077	0.67462	-0.023621	-0.467706	-0.790739	-0.760435	-0.574569	-0.768599	-0.44433	-0.105516	0.246336	0.60527	-0.02017	0.574861	-0.726784	-0.467688	
0.608365	5.43365	0	0	-0.989384	-0.40875	-1.52656	-0.103966	-1.30382	-0.990799	-0.669407	-0.61359	0.516572	-0.311566	0.238134	-0.611896	0.204875	-0.102662	-0.199945	-0.635423	-1.00376	0.676574	-0.0276295	-0.470174	-0.797291	-0.768084	-0.576249	-0.781937	-0.454159	-0.112326	0.243634	0.594179	-0.0193505	0.55865	-0.749809	-0.478101	
0.602588	5.44739	0	0	-0.992297	-0.411262	-1.5299	-0.104083	-1.30699	-0.990563	-0.680252	-0.606504	0.530214	-0.322125	0.230291	-0.611565	0.21394	-0.110229	-0.202354	-0.642417	-1.00676	0.678529	-0.031638	-0.472643	-0.803843	-0.775733	-0.577928	-0.795275	-0.463987	-0.119137	0.240931	0.583087	-0.018531	0.542439	-0.772834	-0.488513	
0.59657	5.43671	0	0	-0.986336	-0.417363	-1.52778	-0.110066	-1.30848	-0.995114	-0.683542	-0.608974	0.544945	-0.330106	0.22356	-0.614353	0.22503	-0.117475	-0.20555	-0.647176	-1.00676	0.678529	-0.036423	-0.472906	-0.81674	-0.774114	-0.584347	-0.795199	-0.469517	-0.126532	0.243886	0.574737	-0.026506	0.53722	-0.78081	-0.503599	
0.590741	5.41687	0	0	-0.980376	-0.423465	-1.52567	-0.11605	-1.30996	-0.999664	-0.686833	-0.611444	0.559675	-0.338086	0.216829	-0.61714	0.236119	-0.124721	-0.208747	-0.651934	-1.00676	0.678529	-0.041208	-0.473169	-0.829638	-0.772494	-0.590766	-0.795123	-0.475047	-0.133927	0.24684	0.566387	-0.034481	0.532	-0.788786	-0.518686	
0.58528	5.42602	0	0	-0.974415	-0.429567	-1.52355	-0.122033	-1.31144	-1.00422	-0.690124	-0.613915	0.574406	-0.346067	0.210098	-0.619927	0.247209	-0.131968	-0.211943	-0.656693	-1.00676	0.678529	-0.045993	-0.473432	-0.842535	-0.770875	-0.597185	-0.795048	-0.480577	-0.141322	0.249795	0.558036	-0.042456	0.526781	-0.796762	-0.533772	
0.580315	5.44433	0	0	-0.968454	-0.435668	-1.52143	-0.128017	-1.31293	-1.00877	-0.693414	-0.616385	0.589137	-0.354048	0.203367	-0.622715	0.258299	-0.139214	-0.215139	-0.661451	-1.00676	0.678529	-0.050778	-0.473695	-0.855432	-0.769255	-0.603604	-0.794972	-0.486107	-0.148717	0.25275	0.549686	-0.050431	0.521562	-0.804738	-0.548859	
0.575971	5.41077	0	0	-0.972384	-0.435306	-1.52038	-0.131007	-1.32245	-1.00806	-0.705396	-0.617787	0.597648	-0.361254	0.198845	-0.631719	0.266626	-0.144655	-0.222313	-0.668729	-1.00376	0.676574	-0.0548327	-0.482896	-0.858742	-0.777292	-0.607177	-0.802923	-0.485094	-0.151578	0.249427	0.549718	-0.0516305	0.524952	-0.81736	-0.550738	
0.57237	5.41077	0	0	-0.976314	-0.434944	-1.51932	-0.133997	-1.33197	-1.00735	-0.717378	-0.619189	0.606159	-0.36846	0.194323	-0.640724	0.274952	-0.150096	-0.229486	-0.676007	-1.00077	0.67462	-0.0588875	-0.492097	-0.862052	-0.785328	-0.610749	-0.810874	-0.484082	-0.154439	0.246105	0.549751	-0.05283	0.528342	-0.829983	-0.552617	
0.569478	5.41382	0	0	-0.980244	-0.434582	-1.51826	-0.136988	-1.34149	-1.00665	-0.729359	-0.620591	0.614671	-0.375666	0.189801	-0.649729	0.283279	-0.155537	-0.23666	-0.683286	-0.997781	0.672665	-0.0629423	-0.501299	-0.865362	-0.793365	-0.614322	-0.818826	-0.48307	-0.1573	0.242783	0.549783	-0.0540295	0.531731	-0.842606	-0.554495	
0.567097	5.40619	0	0	-0.984174	-0.43422	-1.5172	-0.139978	-1.35101	-1.00594	-0.741341	-0.621993	0.623182	-0.382872	0.185279	-0.658733	0.291606	-0.160978	-0.243834	-0.690564	-0.99479	0.67071	-0.066997	-0.5105	-0.868672	-0.801401	-0.617894	-0.826777	-0.482057	-0.160161	0.23946	0.549815	-0.055229	0.535121	-0.855228	-0.556374	
0.565022	5.41839	0	0	-0.986958	-0.447822	-1.51983	-0.161207	-1.35926	-1.02624	-0.754555	-0.643275	0.617255	-0.377354	0.167346	-0.673253	0.280505	-0.153725	-0.255754	-0.698129	-0.99479	0.67071	-0.0750467	-0.522134	-0.87841	-0.808613	-0.631066	-0.834596	-0.486573	-0.170392	0.236752	0.538767	-0.055617	0.522354	-0.873432	-0.579805	
0.563048	5.42297	0	0	-0.989742	-0.461424	-1.52246	-0.182435	-1.3675	-1.04653	-0.767769	-0.664558	0.611328	-0.371837	0.149413	-0.687772	0.269405	-0.146471	-0.267674	-0.705694	-0.99479	0.67071	-0.0830965	-0.533768	-0.888147	-0.815826	-0.644238	-0.842415	-0.491089	-0.180623	0.234044	0.527719	-0.056005	0.509587	-0.891635	-0.603236	
0.561083	5.43365	0	0	-0.992526	-0.475026	-1.52509	-0.203663	-1.37574	-1.06683	-0.780983	-0.68584	0.6054	-0.366319	0.13148	-0.702291	0.258304	-0.139217	-0.279594	-0.713259	-0.99479	0.67071	-0.0911463	-0.545403	-0.897885	-0.823039	-0.657409	-0.850233	-0.495606	-0.190855	0.231337	0.516671	-0.056393	0.49682	-0.909838	-0.626667	
0.559531	5.43671	0	0	-0.99531	-0.488628	-1.52772	-0.224892	-1.38398	-1.08712	-0.794197	-0.707122	0.599473	-0.360801	0.113547	-0.716811	0.247204	-0.131964	-0.291514	-0.720824	-0.99479	0.67071	-0.099196	-0.557037	-0.907623	-0.830251	-0.670581	-0.858052	-0.500122	-0.201086	0.228629	0.505623	-0.056781	0.484053	-0.928042	-0.650098	
0.558926	5.44586	0	0	-0.997981	-0.513239	-1.54055	-0.255345	-1.38971	-1.11444	-0.814966	-0.730193	0.586561	-0.352364	0.102215	-0.749759	0.229824	-0.118964	-0.302651	-0.737363	-1.00675	0.678525	-0.117584	-0.573647	-0.922975	-0.838842	-0.685395	-0.879064	-0.509917	-0.207843	0.219893	0.483642	-0.0885553	0.463314	-0.941584	-0.686403	
0.559803	5.45807	0	0	-1.00065	-0.53785	-1.55338	-0.285797	-1.39543	-1.14175	-0.835735	-0.753264	0.573648	-0.343927	0.0908835	-0.782706	0.212443	-0.105964	-0.313787	-0.753902	-1.01871	0.68634	-0.135972	-0.590257	-0.938327	-0.847433	-0.700209	-0.900076	-0.519712	-0.2146	0.211158	0.461662	-0.12033	0.442575	-0.955126	-0.722707	
0.562676	5.4718	0	0	-1.00332	-0.562461	-1.56621	-0.31625	-1.40115	-1.16907	-0.856505	-0.776334	0.560735	-0.33549	0.0795518	-0.815654	0.195062	-0.0929632	-0.324924	-0.770441	-1.03067	0.694155	-0.15436	-0.606867	-0.95368	-0.856024	-0.715023	-0.921089	-0.529507	-0.221357	0.202423	0.439681	-0.152104	0.421836	-0.968669	-0.759011	
0.567504	5.4718	0	0	-1.00599	-0.587072	-1.57903	-0.346703	-1.40687	-1.19638	-0.877274	-0.799405	0.547823	-0.327053	0.06822	-0.848602	0.177682	-0.079963	-0.336061	-0.78698	-1.04263	0.70197	-0.172748	-0.623477	-0.969032	-0.864615	-0.729837	-0.942101	-0.539302	-0.228114	0.193687	0.4177	-0.183878	0.401097	-0.982211	-0.795316	
0.573675	5.47638	0	0	-1.00969	-0.608728	-1.59953	-0.374191	-1.41827	-1.21622	-0.895878	-0.828239	0.532354	-0.316945	0.0530098	-0.881132	0.155567	-0.0655125	-0.350352	-0.808142	-1.06276	0.713483	-0.191134	-0.646659	-0.980463	-0.884143	-0.740321	-0.984074	-0.542802	-0.241145	0.174072	0.398706	-0.217834	0.387176	-1.01737	-0.807257	
0.580552	5.48553	0	0	-1.01339	-0.630383	-1.62003	-0.401679	-1.42967	-1.23606	-0.914481	-0.857073	0.516885	-0.306837	0.0377995	-0.913662	0.133452	-0.051062	-0.364643	-0.829303	-1.0829	0.724997	-0.20952	-0.669841	-0.991894	-0.903671	-0.750806	-1.02605	-0.546303	-0.254175	0.154457	0.379712	-0.251791	0.373255	-1.05253	-0.819197	
0.587499	5.48706	0	0	-1.01709	-0.652039	-1.64053	-0.429167	-1.44107	-1.25589	-0.933085	-0.885906	0.501416	-0.29673	0.0225892	-0.946192	0.111336	-0.0366115	-0.378934	-0.850465	-1.10303	0.73651	-0.227907	-0.693024	-1.00333	-0.9232	-0.76129	-1.06802	-0.549804	-0.267206	0.134843	0.360718	-0.285747	0.359334	-1.08769	-0.831137	
0.593978	5.49011	0	0	-1.02078	-0.673695	-1.66102	-0.456655	-1.45247	-1.27573	-0.951689	-0.91474	0.485947	-0.286622	0.007379	-0.978722	0.089221	-0.022161	-0.393225	-0.871627	-1.12317	0.748023	-0.246293	-0.716206	-1.01476	-0.942728	-0.771774	-1.10999	-0.553304	-0.280237	0.115228	0.341724	-0.319703	0.345413	-1.12285	-0.843078	
0.600255	5.49011	0	0	-1.02459	-0.6843	-1.66947	-0.489528	-1.4607	-1.29572	-0.97232	-0.937491	0.470506	-0.276532	-0.0176758	-1.00456	0.0726717	-0.0113475	-0.408259	-0.890485	-1.14401	0.76164	-0.267627	-0.723964	-1.03322	-0.950843	-0.782829	-1.14118	-0.567332	-0.286355	0.10361	0.32819	-0.336602	0.338472	-1.14313	-0.859617	
0.606978	5.49621	0	0	-1.0284	-0.694905	-1.67791	-0.5224	-1.46894	-1.3157	-0.992951	-0.960241	0.455064	-0.266443	-0.0427305	-1.03039	0.0561225	-0.000534	-0.423293	-0.909342	-1.16485	0.775257	-0.288961	-0.731722	-1.05168	-0.958959	-0.793884	-1.17236	-0.58136	-0.292473	0.091993	0.314655	-0.353502	0.331531	-1.1634	-0.876155	
0.6148	5.50079	0	0	-1.03221	-0.705509	-1.68635	-0.555273	-1.47718	-1.33569	-1.01358	-0.982991	0.439623	-0.256353	-0.0677853	-1.05623	0.0395733	0.0102795	-0.438328	-0.9282	-1.18569	0.788874	-0.310296	-0.73948	-1.07014	-0.967075	-0.80494	-1.20354	-0.595388	-0.29859	0.0803755	0.301121	-0.370401	0.32459	-1.18368	-0.892694	
0.62437	5.5069	0	0	-1.03602	-0.716114	-1.69479	-0.588145	-1.48541	-1.35567	-1.03421	-1.00574	0.424182	-0.246263	-0.09284	-1.08207	0.023024	0.021093	-0.453362	-0.947057	-1.20653	0.802491	-0.33163	-0.747238	-1.0886	-0.97519	-0.815995	-1.23473	-0.609416	-0.304708	0.068758	0.287586	-0.3873	0.317649	-1.20395	-0.909233	
0.636237	5.51605	0	0	-1.03793	-0.721407	-1.70511	-0.606129	-1.49383	-1.36644	-1.05154	-1.02597	0.419041	-0.242904	-0.100723	-1.10258	0.0175147	0.024693	-0.462076	-0.963215	-1.22435	0.814136	-0.341177	-0.760968	-1.10065	-0.984088	-0.823497	-1.25799	-0.607655	-0.321109	0.0623848	0.268587	-0.402969	0.307393	-1.21179	-0.923899	
0.650061	5.52978	0	0	-1.03983	-0.7267	-1.71542	-0.624113	-1.50224	-1.3772	-1.06887	-1.04619	0.413901	-0.239544	-0.108605	-1.1231	0.0120055	0.028293	-0.470791	-0.979373	-1.24217	0.825782	-0.350724	-0.774698	-1.1127	-0.992986	-0.830999	-1.28125	-0.605893	-0.33751	0.0560115	0.249588	-0.418639	0.297137	-1.21962	-0.938566	
0.66506	5.54809	0	0	-1.04174	-0.731994	-1.72574	-0.642097	-1.51066	-1.38796	-1.0862	-1.06641	0.40876	-0.236185	-0.116487	-1.14362	0.00649625	0.031893	-0.479505	-0.995531	-1.25999	0.837427	-0.360271	-0.788428	-1.12474	-1.00188	-0.838501	-1.30451	-0.604132	-0.35391	0.0496382	0.23059	-0.434308	0.286881	-1.22746	-0.953232	
0.680449	5.56488	0	0	-1.04364	-0.737287	-1.73606	-0.660081	-1.51907	-1.39872	-1.10353	-1.08663	0.403619	-0.232826	-0.12437	-1.16413	0.000987	0.035493	-0.488219	-1.01169	-1.27781	0.849073	-0.369818	-0.802158	-1.13679	-1.01078	-0.846003	-1.32777	-0.602371	-0.370311	0.043265	0.211591	-0.449978	0.276625	-1.23529	-0.967899	
0.695441	5.58014	0	0	-1.04073	-0.73483	-1.7375	-0.674826	-1.52535	-1.39823	-1.11114	-1.09962	0.400292	-0.229008	-0.133757	-1.16963	0.000987	0.035493	-0.492959	-1.01865	-1.28967	0.856823	-0.374586	-0.809005	-1.14478	-1.01394	-0.844155	-1.33299	-0.601622	-0.383845	0.0461662	0.203392	-0.436259	0.265103	-1.22848	-0.987153	
0.709253	5.60303	0	0	-1.03782	-0.732372	-1.73894	-0.689572	-1.53162	-1.39773	-1.11875	-1.11261	0.396966	-0.225189	-0.143144	-1.17513	0.000987	0.035493	-0.497698	-1.02562	-1.30154	0.864573	-0.379354	-0.815851	-1.15276	-1.01709	-0.842308	-1.33821	-0.600872	-0.397379	0.0490675	0.195192	-0.42254	0.253581	-1.22167	-1.00641	
0.721283	5.62286	0	0	-1.03492	-0.729915	-1.74039	-0.704317	-1.5379	-1.39724	-1.12637	-1.1256	0.39364	-0.22137	-0.152531	-1.18064	0.000987	0.035493	-0.502437	-1.03259	-1.3134	0.872323	-0.384123	-0.822698	-1.16075	-1.02024	-0.840461	-1.34343	-0.600123	-0.410914	0.0519688	0.186993	-0.408821	0.242059	-1.21485	-1.02566	
0.731484	5.63354	0	0	-1.03201	-0.727457	-1.74183	-0.719062	-1.54418	-1.39674	-1.13398	-1.13858	0.390313	-0.217552	-0.161918	-1.18614	0.000987	0.035493	-0.507177	-1.03955	-1.32526	0.880073	-0.388891	-0.829545	-1.16873	-1.02339	-0.838613	-1.34866	-0.599373	-0.424448	0.05487	0.178793	-0.395102	0.230537	-1.20804	-1.04491	
0.739915	5.65491	0	0	-1.0292	-0.714017	-1.74739	-0.722138	-1.55294	-1.38922	-1.14146	-1.14042	0.39878	-0.22473	-0.168967	-1.17688	0.0120092	0.028291	-0.508756	-1.04187	-1.33118	0.883944	-0.384247	-0.835897	-1.16873	-1.02339	-0.835979	-1.33833	-0.59812	-0.416573	0.0608687	0.189591	-0.388045	0.251545	-1.20184	-1.04403	
0.746631	5.67169	0	0	-1.02639	-0.700576	-1.75296	-0.725214	-1.5617	-1.38169	-1.14893	-1.14226	0.407247	-0.231907	-0.176017	-1.16762	0.0230315	0.021089	-0.510335	-1.04419	-1.33711	0.887815	-0.379604	-0.842249	-1.16873	-1.02339	-0.833345	-1.328	-0.596867	-0.408698	0.0668675	0.200389	-0.380989	0.272552	-1.19565	-1.04315	
0.751691	5.68542	0	0	-1.02359	-0.687136	-1.75852	-0.72829	-1.57046	-1.37416	-1.15641	-1.1441	0.415715	-0.239085	-0.183066	-1.15836	0.0340538	0.013887	-0.511914	-1.04651	-1.34303	0.891686	-0.374961	-0.848601	-1.16873	-1.02339	-0.83071	-1.31767	-0.595614	-0.400824	0.0728663	0.211187	-0.373933	0.29356	-1.18945	-1.04227	
0.755153	5.69916	0	0	-1.02078	-0.673695	-1.76409	-0.731366	-1.57922	-1.36663	-1.16388	-1.14594	0.424182	-0.246263	-0.190115	-1.14911	0.045076	0.006685	-0.513493	-1.04883	-1.34895	0.895557	-0.370317	-0.854953	-1.16873	-1.02339	-0.828076	-1.30735	-0.594361	-0.392949	0.078865	0.221985	-0.366876	0.314568	-1.18325	-1.04139	
0.757078	5.70984	0	0	-1.01485	-0.679752	-1.76224	-0.745977	-1.58446	-1.37762	-1.15887	-1.17158	0.424939	-0.248402	-0.191368	-1.16687	0.0458322	0.004547	-0.512802	-1.06434	-1.3667	0.907154	-0.380488	-0.85328	-1.18295	-1.01745	-0.844971	-1.28625	-0.590857	-0.379998	0.083306	0.2465	-0.360639	0.351682	-1.18552	-1.03497	
0.757548	5.72204	0	0	-1.00893	-0.685809	-1.7604	-0.760589	-1.58971	-1.38861	-1.15386	-1.19722	0.425696	-0.250541	-0.192622	-1.18464	0.0465885	0.002409	-0.51211	-1.07985	-1.38445	0.918751	-0.390659	-0.851608	-1.19717	-1.0115	-0.861867	-1.26515	-0.587353	-0.367047	0.087747	0.271015	-0.354402	0.388796	-1.18779	-1.02855	
0.756651	5.7312	0	0	-1.003	-0.691867	-1.75855	-0.7752	-1.59496	-1.3996	-1.14885	-1.22286	0.426453	-0.252681	-0.193875	-1.20241	0.0473447	0.000271	-0.511418	-1.09536	-1.4022	0.930349	-0.400829	-0.849935	-1.21139	-1.00555	-0.878763	-1.24406	-0.583849	-0.354097	0.092188	0.29553	-0.348165	0.425911	-1.19006	-1.02214	
0.75447	5.73578	0	0	-0.997071	-0.697924	-1.75671	-0.789812	-1.6002	-1.41059	-1.14383	-1.24849	0.42721	-0.25482	-0.195128	-1.22018	0.048101	-0.001867	-0.510727	-1.11087	-1.41995	0.941946	-0.411	-0.848263	-1.22561	-0.999609	-0.895658	-1.22296	-0.580345	-0.341146	0.096629	0.320045	-0.341928	0.463025	-1.19233	-1.01572	
0.751092	5.74493	0	0	-0.99124	-0.692993	-1.75465	-0.795617	-1.59938	-1.41293	-1.13855	-1.25195	0.432354	-0.258181	-0.207684	-1.21662	0.0536175	-0.0054715	-0.513886	-1.11549	-1.43547	0.953729	-0.408713	-0.854727	-1.2351	-0.998421	-0.895658	-1.22296	-0.580345	-0.341146	0.106527	0.31992	-0.322607	0.463323	-1.19006	-1.02214	
0.746602	5.75256	0	0	-0.98541	-0.688063	-1.7526	-0.801422	-1.59855	-1.41527	-1.13327	-1.2554	0.437498	-0.261543	-0.220241	-1.21305	0.059134	-0.009076	-0.517045	-1.1201	-1.45098	0.965511	-0.406425	-0.861191	-1.24459	-0.997234	-0.895658	-1.22296	-0.580345	-0.341146	0.116425	0.319795	-0.303285	0.46362	-1.18779	-1.02855	
0.741129	5.75714	0	0	-0.97958	-0.683132	-1.75055	-0.807226	-1.59772	-1.41761	-1.12799	-1.25885	0.442642	-0.264904	-0.232797	-1.20948	0.0646505	-0.0126805	-0.520204	-1.12472	-1.4665	0.977294	-0.404138	-0.867656	-1.25408	-0.996047	-0.895658	-1.22296	-0.580345	-0.341146	0.126322	0.31967	-0.283964	0.463918	-1.18552	-1.03497	
0.734931	5.75867	0	0	-0.973749	-0.678201	-1.74849	-0.813031	-1.59689	-1.41995	-1.12271	-1.2623	0.447786	-0.268265	-0.245354	-1.20592	0.070167	-0.016285	-0.523363	-1.12934	-1.48202	0.989077	-0.401851	-0.87412	-1.26357	-0.994859	-0.895658	-1.22296	-0.580345	-0.341146	0.13622	0.319545	-0.264643	0.464216	-1.18325	-1.04139	
0.728296	5.76324	0	0	-0.968018	-0.662239	-1.74725	-0.807148	-1.59625	-1.41317	-1.11523	-1.26049	0.460659	-0.276677	-0.251313	-1.19971	0.0812102	-0.023501	-0.52571	-1.12947	-1.48716	0.990794	-0.403439	-0.876394	-1.26836	-0.998414	-0.892497	-1.22301	-0.577088	-0.338913	0.150803	0.324839	-0.248839	0.474616	-1.18325	-1.04139	
0.72151	5.7663	0	0	-0.962287	-0.646276	-1.74601	-0.801265	-1.5956	-1.40639	-1.10774	-1.25868	0.473533	-0.285088	-0.257271	-1.19349	0.0922535	-0.030717	-0.528058	-1.12961	-1.4923	0.992511	-0.405027	-0.878667	-1.27314	-1.00197	-0.889337	-1.22306	-0.573831	-0.336681	0.165386	0.330132	-0.233035	0.485016	-1.18325	-1.04139	
0.714857	5.76324	0	0	-0.956556	-0.630313	-1.74476	-0.795381	-1.59496	-1.39961	-1.10025	-1.25687	0.486407	-0.2935	-0.26323	-1.18728	0.103297	-0.037933	-0.530405	-1.12975	-1.49745	0.994228	-0.406616	-0.880941	-1.27792	-1.00552	-0.886177	-1.22312	-0.570574	-0.334449	0.179968	0.335425	-0.217231	0.495417	-1.18325	-1.04139	
0.708621	5.75867	0	0	-0.950825	-0.614351	-1.74352	-0.789498	-1.59431	-1.39282	-1.09277	-1.25506	0.49928	-0.301912	-0.269189	-1.18107	0.11434	-0.045149	-0.532752	-1.12988	-1.50259	0.995945	-0.408204	-0.883214	-1.28271	-1.00908	-0.883016	-1.22317	-0.567317	-0.332216	0.194551	0.340719	-0.201427	0.505817	-1.18325	-1.04139	
0.702903	5.76019	0	0	-0.948807	-0.620054	-1.74352	-0.789498	-1.5956	-1.40638	-1.09071	-1.26087	0.501857	-0.303596	-0.281263	-1.1894	0.106056	-0.039736	-0.535952	-1.14113	-1.52689	1.01347	-0.418357	-0.881544	-1.29925	-1.00495	-0.896574	-1.22035	-0.558787	-0.333426	0.195313	0.3572	-0.193136	0.523793	-1.17932	-1.03409	
0.697567	5.7663	0	0	-0.946789	-0.625757	-1.74352	-0.789498	-1.59689	-1.41993	-1.08866	-1.26668	0.504434	-0.30528	-0.293338	-1.19772	0.0977725	-0.034323	-0.539151	-1.15238	-1.5512	1.031	-0.428509	-0.879873	-1.31579	-1.00081	-0.910131	-1.21752	-0.550258	-0.334636	0.196076	0.37368	-0.184846	0.541768	-1.17539	-1.02678	
0.692462	5.76324	0	0	-0.944771	-0.631459	-1.74352	-0.789498	-1.59818	-1.43349	-1.0866	-1.27249	0.507011	-0.306964	-0.305412	-1.20605	0.0894888	-0.02891	-0.54235	-1.16363	-1.57551	1.04852	-0.438662	-0.878203	-1.33233	-0.996678	-0.923689	-1.2147	-0.541728	-0.335846	0.196838	0.390161	-0.176556	0.559744	-1.17146	-1.01948	
0.687434	5.75561	0	0	-0.942753	-0.637162	-1.74352	-0.789498	-1.59947	-1.44704	-1.08454	-1.2783	0.509588	-0.308648	-0.317486	-1.21438	0.081205	-0.023497	-0.54555	-1.17488	-1.59981	1.06605	-0.448815	-0.876533	-1.34887	-0.992544	-0.937246	-1.21188	-0.533199	-0.337056	0.1976	0.406642	-0.168265	0.57772	-1.16752	-1.01218	
0.682333	5.75561	0	0	-0.937814	-0.640389	-1.73259	-0.792173	-1.60094	-1.45147	-1.08028	-1.27886	0.512166	-0.310332	-0.317043	-1.22623	0.0784455	-0.021694	-0.551814	-1.17745	-1.61375	1.07351	-0.455088	-0.879047	-1.35839	-0.99965	-0.941156	-1.22741	-0.529184	-0.348404	0.204824	0.395549	-0.157114	0.560027	-1.16298	-1.02502	
0.67704	5.75409	0	0	-0.932875	-0.643617	-1.72166	-0.794847	-1.60242	-1.4559	-1.07602	-1.27941	0.514744	-0.312017	-0.3166	-1.23808	0.075686	-0.019891	-0.558078	-1.18002	-1.62768	1.08097	-0.46136	-0.881561	-1.36791	-1.00676	-0.945066	-1.24294	-0.525168	-0.359751	0.212049	0.384457	-0.145962	0.542334	-1.15844	-1.03786	
0.671607	5.74951	0	0	-0.927935	-0.646845	-1.71073	-0.797521	-1.60389	-1.46033	-1.07176	-1.27996	0.517321	-0.313701	-0.316157	-1.24993	0.0729265	-0.018088	-0.564342	-1.18259	-1.64161	1.08843	-0.467633	-0.884076	-1.37744	-1.01386	-0.948976	-1.25846	-0.521153	-0.371098	0.219273	0.373364	-0.134811	0.52464	-1.15389	-1.0507	
0.666138	5.74341	0	0	-0.922996	-0.650072	-1.6998	-0.800196	-1.60537	-1.46476	-1.0675	-1.28051	0.519899	-0.315385	-0.315714	-1.26178	0.070167	-0.016285	-0.570606	-1.18516	-1.65554	1.09588	-0.473905	-0.88659	-1.38696	-1.02097	-0.952886	-1.27399	-0.517138	-0.382446	0.226497	0.362272	-0.12366	0.506947	-1.14935	-1.06354	
0.660735	5.74036	0	0	-0.924005	-0.647221	-1.69525	-0.794228	-1.60289	-1.47176	-1.06102	-1.2758	0.519142	-0.313246	-0.321211	-1.26742	0.0618937	-0.010879	-0.572992	-1.19191	-1.67313	1.10738	-0.47707	-0.891129	-1.40266	-1.01902	-0.949969	-1.29993	-0.516395	-0.395997	0.233721	0.351186	-0.117683	0.490056	-1.15329	-1.07083	
0.655502	5.73883	0	0	-0.925014	-0.64437	-1.6907	-0.78826	-1.60041	-1.47877	-1.05455	-1.27108	0.518385	-0.311107	-0.326707	-1.27306	0.0536205	-0.005473	-0.575379	-1.19867	-1.69072	1.11887	-0.480235	-0.895668	-1.41837	-1.01708	-0.947052	-1.32587	-0.515653	-0.409548	0.240945	0.340099	-0.111706	0.473164	-1.15723	-1.07811	
0.650533	5.7312	0	0	-0.926022	-0.64152	-1.68615	-0.782291	-1.59793	-1.48578	-1.04807	-1.26637	0.517628	-0.308967	-0.332204	-1.27871	0.0453472	-6.7E-05	-0.577765	-1.20543	-1.70831	1.13037	-0.483399	-0.900206	-1.43407	-1.01513	-0.944135	-1.35181	-0.51491	-0.423098	0.248168	0.329013	-0.105729	0.456273	-1.16117	-1.08539	
0.645853	5.72204	0	0	-0.927031	-0.638669	-1.68159	-0.776323	-1.59545	-1.49279	-1.0416	-1.26166	0.516871	-0.306828	-0.337701	-1.28435	0.037074	0.005339	-0.580151	-1.21219	-1.7259	1.14186	-0.486564	-0.904745	-1.44978	-1.01319	-0.941218	-1.37775	-0.514167	-0.436649	0.255392	0.317927	-0.099752	0.439381	-1.1651	-1.09268	
0.64144	5.71747	0	0	-0.926834	-0.660684	-1.68593	-0.77349	-1.60053	-1.51276	-1.03851	-1.27038	0.511716	-0.30346	-0.344877	-1.29579	0.0142945	0.021867	-0.585641	-1.21691	-1.74345	1.15333	-0.493585	-0.905108	-1.4662	-1.0091	-0.946461	-1.39827	-0.514432	-0.447345	0.255976	0.306949	-0.0961712	0.429261	-1.16904	-1.09995	
0.637275	5.71594	0	0	-0.926637	-0.6827	-1.69027	-0.770657	-1.60561	-1.53274	-1.03542	-1.27911	0.506561	-0.300091	-0.352052	-1.30723	-0.008485	0.038395	-0.59113	-1.22163	-1.76101	1.1648	-0.500606	-0.905471	-1.48263	-1.00501	-0.951704	-1.4188	-0.514697	-0.45804	0.256559	0.295971	-0.0925905	0.419142	-1.17298	-1.10722	
0.633336	5.70373	0	0	-0.926439	-0.704715	-1.6946	-0.767825	-1.61069	-1.55271	-1.03234	-1.28783	0.501407	-0.296723	-0.359228	-1.31867	-0.0312645	0.054923	-0.596619	-1.22635	-1.77856	1.17627	-0.507626	-0.905834	-1.49906	-1.00093	-0.956948	-1.43932	-0.514961	-0.468735	0.257142	0.284992	-0.0890097	0.409022	-1.17691	-1.11449	
0.629598	5.69763	0	0	-0.926242	-0.72673	-1.69894	-0.764992	-1.61577	-1.57269	-1.02925	-1.29656	0.496252	-0.293355	-0.366404	-1.33012	-0.054044	0.071451	-0.602109	-1.23107	-1.79612	1.18774	-0.514647	-0.906197	-1.51549	-0.996838	-0.962191	-1.45985	-0.515226	-0.479431	0.257726	0.274014	-0.085429	0.398902	-1.18085	-1.12176	
0.625961	5.69763	0	0	-0.926065	-0.748662	-1.69254	-0.773643	-1.6184	-1.59954	-1.02735	-1.31343	0.487769	-0.286166	-0.380106	-1.34414	-0.0760105	0.0858045	-0.613026	-1.23389	-1.82529	1.20681	-0.534029	-0.898479	-1.5404	-0.985538	-0.971385	-1.49555	-0.518761	-0.492309	0.246022	0.260517	-0.0917908	0.403059	-1.205	-1.14522	
0.622276	5.69153	0	0	-0.925889	-0.770595	-1.68615	-0.782293	-1.62102	-1.62638	-1.02546	-1.33029	0.479285	-0.278978	-0.393808	-1.35817	-0.097977	0.100158	-0.623943	-1.23671	-1.85447	1.22587	-0.553411	-0.890761	-1.56532	-0.974239	-0.980579	-1.53126	-0.522296	-0.505186	0.234317	0.24702	-0.0981525	0.407216	-1.22915	-1.16867	
0.618391	5.68237	0	0	-0.925713	-0.792527	-1.67975	-0.790944	-1.62365	-1.65323	-1.02356	-1.34716	0.470801	-0.271789	-0.40751	-1.37219	-0.119944	0.114512	-0.63486	-1.23953	-1.88365	1.24494	-0.572794	-0.883044	-1.59024	-0.962939	-0.989772	-1.56696	-0.525831	-0.518064	0.222613	0.233523	-0.104514	0.411373	-1.2533	-1.19212	
0.614158	5.67779	0	0	-0.925536	-0.814459	-1.67336	-0.799594	-1.62627	-1.68007	-1.02167	-1.36402	0.462318	-0.264601	-0.421212	-1.38621	-0.14191	0.128865	-0.645777	-1.24236	-1.91283	1.26401	-0.592176	-0.875326	-1.61515	-0.951639	-0.998966	-1.60267	-0.529366	-0.530942	0.210908	0.220026	-0.110876	0.41553	-1.27745	-1.21557	
0.609462	5.67474	0	0	-0.931302	-0.830268	-1.67028	-0.808314	-1.62744	-1.70243	-1.0261	-1.37449	0.460501	-0.265059	-0.425838	-1.41523	-0.155611	0.137817	-0.648155	-1.24909	-1.939	1.28111	-0.606097	-0.869526	-1.63611	-0.942919	-1.00818	-1.63811	-0.534176	-0.551597	0.204468	0.201049	-0.109303	0.38347	-1.31211	-1.22707	
0.604515	5.66559	0	0	-0.937068	-0.846076	-1.66719	-0.817034	-1.62861	-1.72479	-1.03053	-1.38496	0.458684	-0.265517	-0.430465	-1.44425	-0.169312	0.146769	-0.650534	-1.25582	-1.96518	1.29821	-0.620017	-0.863727	-1.65707	-0.934199	-1.0174	-1.67355	-0.538986	-0.572253	0.198028	0.182073	-0.10773	0.351411	-1.34677	-1.23857	
0.599696	5.65948	0	0	-0.942834	-0.861884	-1.6641	-0.825754	-1.62978	-1.74714	-1.03496	-1.39543	0.456868	-0.265975	-0.435091	-1.47327	-0.183012	0.155722	-0.652913	-1.26255	-1.99135	1.31532	-0.633938	-0.857927	-1.67804	-0.925479	-1.02661	-1.70899	-0.543795	-0.592909	0.191588	0.163097	-0.106157	0.319351	-1.38144	-1.25007	
0.59539	5.65491	0	0	-0.9486	-0.877693	-1.66102	-0.834474	-1.63095	-1.7695	-1.03939	-1.4059	0.455051	-0.266433	-0.439717	-1.50229	-0.196713	0.164674	-0.655291	-1.26928	-2.01753	1.33242	-0.647858	-0.852127	-1.699	-0.916759	-1.03583	-1.74443	-0.548605	-0.613564	0.185148	0.14412	-0.104584	0.287291	-1.4161	-1.26156	
0.591977	5.65338	0	0	-0.949452	-0.896657	-1.65896	-0.840283	-1.63526	-1.7915	-1.04178	-1.42213	0.446577	-0.259251	-0.444774	-1.5195	-0.207657	0.171825	-0.660762	-1.27398	-2.04073	1.34758	-0.657914	-0.850498	-1.7199	-0.908076	-1.03882	-1.77977	-0.552433	-0.63693	0.18958	0.122313	-0.0915482	0.25045	-1.43999	-1.28477	
0.58972	5.64728	0	0	-0.950304	-0.91562	-1.65691	-0.846091	-1.63956	-1.8135	-1.04417	-1.43835	0.438102	-0.252068	-0.449832	-1.53671	-0.218602	0.178977	-0.666233	-1.27868	-2.06393	1.36274	-0.66797	-0.848868	-1.7408	-0.899392	-1.04181	-1.81512	-0.556261	-0.660297	0.194011	0.100506	-0.0785125	0.213609	-1.46388	-1.30798	
0.588405	5.63812	0	0	-0.951156	-0.934584	-1.65485	-0.8519	-1.64386	-1.8355	-1.04655	-1.45457	0.429628	-0.244886	-0.454889	-1.55393	-0.229547	0.186129	-0.671703	-1.28338	-2.08713	1.3779	-0.678026	-0.847239	-1.7617	-0.890708	-1.0448	-1.85046	-0.56009	-0.683663	0.198442	0.0786997	-0.0654768	0.176768	-1.48777	-1.33119	
0.587705	5.63507	0	0	-0.952008	-0.953548	-1.6528	-0.857708	-1.64816	-1.8575	-1.04894	-1.47079	0.421154	-0.237704	-0.459946	-1.57114	-0.240491	0.19328	-0.677174	-1.28808	-2.11033	1.39306	-0.688082	-0.845609	-1.7826	-0.882025	-1.04779	-1.88581	-0.563918	-0.707029	0.202874	0.056893	-0.052441	0.139927	-1.51166	-1.35439	
0.58729	5.63507	0	0	-0.956789	-0.972049	-1.65405	-0.863581	-1.65329	-1.87711	-1.05133	-1.48696	0.41934	-0.238164	-0.460184	-1.59144	-0.243225	0.195067	-0.681072	-1.29049	-2.12769	1.4044	-0.69656	-0.841716	-1.80497	-0.869069	-1.0571	-1.90317	-0.571711	-0.719128	0.202464	0.0487723	-0.047714	0.126568	-1.52328	-1.37577	
0.586836	5.62439	0	0	-0.961569	-0.990549	-1.65531	-0.869454	-1.65841	-1.89672	-1.05373	-1.50313	0.417527	-0.238624	-0.460422	-1.61175	-0.245959	0.196853	-0.684969	-1.29291	-2.14505	1.41574	-0.705038	-0.837822	-1.82733	-0.856113	-1.06642	-1.92054	-0.579504	-0.731228	0.202055	0.0406515	-0.042987	0.113208	-1.5349	-1.39714	
0.586243	5.61981	0	0	-0.96635	-1.00905	-1.65656	-0.875327	-1.66354	-1.91633	-1.05612	-1.51931	0.415713	-0.239084	-0.46066	-1.63205	-0.248693	0.198639	-0.688867	-1.29532	-2.16241	1.42709	-0.713516	-0.833928	-1.84969	-0.843156	-1.07573	-1.9379	-0.587297	-0.743327	0.201646	0.0325307	-0.03826	0.0998493	-1.54653	-1.41852	
0.585781	5.61676	0	0	-0.971131	-1.02755	-1.65782	-0.8812	-1.66867	-1.93594	-1.05852	-1.53548	0.413899	-0.239544	-0.460898	-1.65235	-0.251427	0.200426	-0.692764	-1.29774	-2.17977	1.43843	-0.721994	-0.830035	-1.87206	-0.8302	-1.08505	-1.95527	-0.59509	-0.755426	0.201236	0.02441	-0.033533	0.08649	-1.55815	-1.43989	
0.585754	5.61371	0	0	-0.979824	-1.04558	-1.65702	-0.89286	-1.67529	-1.95977	-1.06517	-1.55103	0.410572	-0.235725	-0.473269	-1.6488	-0.256893	0.203997	-0.700506	-1.29598	-2.18843	1.44409	-0.724313	-0.830166	-1.88284	-0.824814	-1.08992	-1.96768	-0.600609	-0.762543	0.201236	0.02441	-0.0410618	0.0939757	-1.57418	-1.44867	
0.586466	5.60913	0	0	-0.988518	-1.06361	-1.65623	-0.904519	-1.6819	-1.9836	-1.07182	-1.56658	0.407245	-0.231905	-0.485641	-1.64526	-0.262358	0.207568	-0.708247	-1.29423	-2.1971	1.44975	-0.726632	-0.830296	-1.89361	-0.819428	-1.09478	-1.98009	-0.606128	-0.769659	0.201236	0.02441	-0.0485905	0.101461	-1.5902	-1.45744	
0.588204	5.60455	0	0	-0.997212	-1.08164	-1.65543	-0.916179	-1.68852	-2.00743	-1.07848	-1.58213	0.403917	-0.228086	-0.498012	-1.64171	-0.267823	0.21114	-0.715989	-1.29247	-2.20577	1.45542	-0.728951	-0.830426	-1.90439	-0.814042	-1.09965	-1.9925	-0.611647	-0.776776	0.201236	0.02441	-0.0561192	0.108947	-1.60623	-1.46621	
0.59102	5.6015	0	0	-1.00591	-1.09966	-1.65464	-0.927838	-1.69514	-2.03125	-1.08513	-1.59768	0.40059	-0.224267	-0.510384	-1.63817	-0.273289	0.214711	-0.72373	-1.29072	-2.21443	1.46108	-0.73127	-0.830557	-1.91517	-0.808656	-1.10452	-2.00491	-0.617166	-0.783892	0.201236	0.02441	-0.063648	0.116433	-1.62225	-1.47499	
0.59479	5.59845	0	0	-1.00679	-1.11842	-1.66022	-0.930863	-1.70499	-2.04586	-1.08754	-1.61374	0.403917	-0.228086	-0.512068	-1.64387	-0.2698	0.210788	-0.72145	-1.29716	-2.22309	1.46674	-0.736662	-0.828679	-1.92977	-0.800772	-1.11965	-1.99697	-0.62465	-0.785428	0.204952	0.032469	-0.0556767	0.121499	-1.63438	-1.47666	
0.599388	5.59234	0	0	-1.00768	-1.13718	-1.66581	-0.933889	-1.71484	-2.06046	-1.08994	-1.62981	0.407245	-0.231905	-0.513753	-1.64957	-0.266312	0.206865	-0.71917	-1.30361	-2.23175	1.47239	-0.742055	-0.826801	-1.94437	-0.792888	-1.13479	-1.98903	-0.632135	-0.786963	0.208668	0.040528	-0.0477055	0.126564	-1.64651	-1.47834	
0.604685	5.59082	0	0	-1.00856	-1.15594	-1.6714	-0.936914	-1.72469	-2.07507	-1.09235	-1.64587	0.410572	-0.235725	-0.515437	-1.65527	-0.262823	0.202941	-0.716889	-1.31005	-2.2404	1.47805	-0.747447	-0.824924	-1.95897	-0.785004	-1.14992	-1.98108	-0.639619	-0.788498	0.212384	0.048587	-0.0397342	0.13163	-1.65864	-1.48002	
0.61058	5.58777	0	0	-1.00945	-1.1747	-1.67698	-0.939939	-1.73454	-2.08967	-1.09476	-1.66194	0.413899	-0.239544	-0.517122	-1.66097	-0.259334	0.199018	-0.714609	-1.3165	-2.24906	1.48371	-0.752839	-0.823046	-1.97357	-0.77712	-1.16506	-1.97314	-0.647103	-0.790034	0.2161	0.056646	-0.031763	0.136696	-1.67077	-1.48169	
0.617184	5.58624	0	0	-1.01528	-1.17947	-1.67596	-0.942832	-1.7367	-2.1005	-1.09273	-1.66767	0.426761	-0.247948	-0.515437	-1.65527	-0.248396	0.191871	-0.712283	-1.31637	-2.25558	1.48961	-0.750522	-0.822914	-1.98124	-0.772108	-1.17038	-1.9755	-0.652319	-0.786626	0.212637	0.0757215	-0.0348847	0.159331	-1.68288	-1.48337	
0.624709	5.57556	0	0	-1.0211	-1.18423	-1.67494	-0.945724	-1.73887	-2.11133	-1.0907	-1.67339	0.439623	-0.256352	-0.513753	-1.64957	-0.237459	0.184724	-0.709956	-1.31624	-2.26211	1.49552	-0.748205	-0.822782	-1.98891	-0.767095	-1.17569	-1.97786	-0.657535	-0.783218	0.209173	0.094797	-0.0380065	0.181965	-1.69498	-1.48505	
0.633372	5.57556	0	0	-1.02693	-1.189	-1.67391	-0.948616	-1.74103	-2.12215	-1.08868	-1.67912	0.452484	-0.264757	-0.512068	-1.64387	-0.226521	0.177577	-0.70763	-1.3161	-2.26863	1.50142	-0.745888	-0.822651	-1.99659	-0.762082	-1.18101	-1.98022	-0.662751	-0.779809	0.205709	0.113873	-0.0411282	0.204599	-1.70708	-1.48673	
0.643385	5.57709	0	0	-1.03276	-1.19377	-1.67289	-0.951509	-1.7432	-2.13298	-1.08665	-1.68485	0.465346	-0.273161	-0.510384	-1.63817	-0.215583	0.17043	-0.705303	-1.31597	-2.27515	1.50733	-0.743571	-0.822519	-2.00426	-0.75707	-1.18633	-1.98258	-0.667967	-0.776401	0.202246	0.132948	-0.04425	0.227234	-1.71919	-1.48841	
0.65494	5.57251	0	0	-1.02985	-1.19139	-1.67596	-0.942829	-1.74481	-2.12844	-1.07917	-1.68313	0.487789	-0.286181	-0.502194	-1.6299	-0.188934	0.154661	-0.696748	-1.3133	-2.26939	1.50356	-0.738177	-0.824398	-2.00809	-0.754566	-1.18723	-1.98005	-0.67445	-0.780723	0.206925	0.138312	-0.0517937	0.234742	-1.72906	-1.49632	
0.667833	5.5664	0	0	-1.02693	-1.18901	-1.67903	-0.934149	-1.74642	-2.12389	-1.07168	-1.68142	0.510232	-0.2992	-0.494003	-1.62162	-0.162285	0.138891	-0.688194	-1.31063	-2.26362	1.49979	-0.732783	-0.826277	-2.01192	-0.752061	-1.18812	-1.97752	-0.680934	-0.785044	0.211605	0.143676	-0.0593375	0.24225	-1.73894	-1.50422	
0.681546	5.56488	0	0	-1.02402	-1.18662	-1.68211	-0.925468	-1.74802	-2.11934	-1.0642	-1.6797	0.532675	-0.312219	-0.485813	-1.61335	-0.135636	0.123121	-0.67964	-1.30796	-2.25785	1.49602	-0.727388	-0.828156	-2.01576	-0.749557	-1.18901	-1.97499	-0.687418	-0.789366	0.216284	0.149041	-0.0668813	0.249758	-1.74882	-1.51213	
0.695552	5.56946	0	0	-1.02111	-1.18424	-1.68518	-0.916788	-1.74963	-2.11479	-1.05671	-1.67799	0.555118	-0.325239	-0.477623	-1.60508	-0.108987	0.107352	-0.671085	-1.30529	-2.25209	1.49225	-0.721994	-0.830035	-2.01959	-0.747052	-1.18991	-1.97246	-0.693901	-0.793688	0.220963	0.154405	-0.074425	0.257266	-1.75869	-1.52003	
0.709326	5.56183	0	0	-1.02017	-1.17627	-1.68495	-0.908029	-1.75608	-2.09658	-1.05328	-1.6648	0.58615	-0.345516	-0.480546	-1.57585	-0.0759843	0.0857873	-0.663232	-1.29387	-2.23765	1.48282	-0.708111	-0.835813	-2.01499	-0.75171	-1.18908	-1.95743	-0.693901	-0.793688	0.234622	0.162354	-0.0688368	0.269107	-1.76693	-1.51465	
0.72234	5.55572	0	0	-1.01923	-1.1683	-1.68472	-0.899271	-1.76252	-2.07837	-1.04985	-1.6516	0.617182	-0.365792	-0.48347	-1.54661	-0.0429815	0.0642225	-0.65538	-1.28245	-2.22322	1.47339	-0.694228	-0.841592	-2.0104	-0.756368	-1.18824	-1.9424	-0.693901	-0.793688	0.248281	0.170303	-0.0632485	0.280948	-1.77516	-1.50928	
0.734116	5.5542	0	0	-1.01829	-1.16033	-1.68449	-0.890512	-1.76897	-2.06016	-1.04641	-1.63841	0.648213	-0.386069	-0.486394	-1.51737	-0.00997875	0.0426577	-0.647527	-1.27103	-2.20878	1.46396	-0.680345	-0.847371	-2.0058	-0.761027	-1.18741	-1.92737	-0.693901	-0.793688	0.261941	0.178252	-0.0576603	0.292789	-1.78339	-1.5039	
0.74456	5.55572	0	0	-1.01735	-1.15236	-1.68426	-0.881753	-1.77541	-2.04195	-1.04298	-1.62522	0.679245	-0.406346	-0.489317	-1.48814	0.023024	0.021093	-0.639674	-1.25961	-2.19435	1.45453	-0.666462	-0.853149	-2.00121	-0.765685	-1.18657	-1.91234	-0.693901	-0.793688	0.2756	0.186201	-0.052072	0.30463	-1.79162	-1.49852	
0.753756	5.54962	0	0	-1.03016	-1.1268	-1.69475	-0.861516	-1.78429	-2.01684	-1.05639	-1.59877	0.718193	-0.431795	-0.480927	-1.45931	0.0561543	-0.000555	-0.630238	-1.24586	-2.177	1.44319	-0.657915	-0.850495	-1.99046	-0.771052	-1.18624	-1.88717	-0.694601	-0.780389	0.285791	0.213416	-0.0448785	0.325829	-1.78779	-1.49145	
0.761789	5.54352	0	0	-1.04296	-1.10124	-1.70524	-0.841279	-1.79317	-1.99174	-1.0698	-1.57233	0.757141	-0.457245	-0.472537	-1.43048	0.0892845	-0.022203	-0.620802	-1.23211	-2.15964	1.43185	-0.649369	-0.84784	-1.97971	-0.776418	-1.1859	-1.862	-0.695302	-0.76709	0.295983	0.24063	-0.037685	0.347027	-1.78397	-1.48438	
0.768745	5.54352	0	0	-1.05576	-1.07567	-1.71573	-0.821043	-1.80206	-1.96664	-1.08321	-1.54588	0.796089	-0.482695	-0.464147	-1.40165	0.122415	-0.043851	-0.611365	-1.21836	-2.14229	1.42051	-0.640822	-0.845186	-1.96897	-0.781784	-1.18557	-1.83683	-0.696002	-0.753791	0.306175	0.267845	-0.0304915	0.368225	-1.78014	-1.47731	
0.774709	5.54352	0	0	-1.06857	-1.05011	-1.72622	-0.800806	-1.81094	-1.94154	-1.09662	-1.51943	0.835037	-0.508144	-0.455757	-1.37282	0.155545	-0.065499	-0.601929	-1.20461	-2.12494	1.40917	-0.632275	-0.842531	-1.95822	-0.787151	-1.18523	-1.81166	-0.696703	-0.740492	0.316366	0.295059	-0.023298	0.389424	-1.77631	-1.47025	
0.779768	5.53894	0	0	-1.07055	-1.04451	-1.7293	-0.792089	-1.81108	-1.93265	-1.10596	-1.50447	0.871549	-0.532002	-0.446935	-1.35561	0.180477	-0.08179	-0.591756	-1.19961	-2.11335	1.4016	-0.627617	-0.842276	-1.95362	-0.791814	-1.18934	-1.79134	-0.696149	-0.719398	0.323611	0.330768	-0.0093115	0.419318	-1.78293	-1.45154	
0.784024	5.53131	0	0	-1.07253	-1.03891	-1.73238	-0.783372	-1.81123	-1.92377	-1.11531	-1.4895	0.90806	-0.555859	-0.438112	-1.33841	0.205409	-0.098081	-0.581582	-1.19461	-2.10176	1.39403	-0.622959	-0.842021	-1.94902	-0.796477	-1.19344	-1.77103	-0.695596	-0.698304	0.330857	0.366478	0.004675	0.449211	-1.78955	-1.43284	
0.787595	5.53436	0	0	-1.07451	-1.03331	-1.73547	-0.774655	-1.81138	-1.91488	-1.12465	-1.47454	0.944572	-0.579717	-0.429289	-1.3212	0.230341	-0.114372	-0.571408	-1.18962	-2.09017	1.38646	-0.618301	-0.841766	-1.94441	-0.80114	-1.19755	-1.75071	-0.695042	-0.677211	0.338102	0.402187	0.0186615	0.479104	-1.79617	-1.41414	
0.790598	5.53436	0	0	-1.07649	-1.02771	-1.73855	-0.765938	-1.81152	-1.906	-1.134	-1.45957	0.981084	-0.603574	-0.420467	-1.304	0.255273	-0.130663	-0.561235	-1.18462	-2.07858	1.37888	-0.613643	-0.841511	-1.93981	-0.805803	-1.20165	-1.7304	-0.694488	-0.656117	0.345348	0.437896	0.032648	0.508998	-1.80278	-1.39543	
0.793151	5.52826	0	0	-1.07175	-1.00924	-1.7371	-0.751223	-1.81117	-1.88156	-1.1284	-1.44103	1.02225	-0.628825	-0.409959	-1.28089	0.284331	-0.146362	-0.552536	-1.16863	-2.06117	1.36751	-0.606649	-0.84113	-1.92828	-0.813337	-1.19865	-1.71271	-0.689986	-0.646153	0.357499	0.459909	0.0398425	0.530442	-1.79896	-1.38833	
0.79537	5.52368	0	0	-1.067	-0.990771	-1.73565	-0.736508	-1.81082	-1.85712	-1.12281	-1.42249	1.06341	-0.654075	-0.39945	-1.25778	0.313389	-0.16206	-0.543836	-1.15264	-2.04376	1.35613	-0.599655	-0.84075	-1.91675	-0.820871	-1.19565	-1.69503	-0.685485	-0.636189	0.369651	0.481923	0.047037	0.551886	-1.79514	-1.38122	
0.797373	5.52368	0	0	-1.06225	-0.972302	-1.7342	-0.721793	-1.81046	-1.83267	-1.11721	-1.40395	1.10457	-0.679326	-0.388941	-1.23467	0.342447	-0.177759	-0.535137	-1.13664	-2.02635	1.34475	-0.592661	-0.840369	-1.90522	-0.828404	-1.19265	-1.67735	-0.680983	-0.626224	0.381803	0.503936	0.0542315	0.573331	-1.79133	-1.37411	
0.799152	5.52215	0	0	-1.0575	-0.953834	-1.73275	-0.707078	-1.81011	-1.80823	-1.11162	-1.38541	1.14573	-0.704576	-0.378433	-1.21155	0.371505	-0.193458	-0.526437	-1.12065	-2.00894	1.33337	-0.585667	-0.839988	-1.89369	-0.835938	-1.18965	-1.65966	-0.676481	-0.61626	0.393954	0.525949	0.061426	0.594775	-1.78751	-1.36701	
0.80042	5.51605	0	0	-1.06556	-0.920427	-1.74204	-0.680816	-1.81923	-1.77397	-1.12817	-1.35009	1.19578	-0.737278	-0.366239	-1.18245	0.402942	-0.215644	-0.514566	-1.09996	-1.98567	1.31817	-0.572415	-0.837082	-1.88367	-0.839174	-1.18717	-1.63171	-0.671714	-0.595652	0.409854	0.556421	0.0766445	0.621603	-1.79034	-1.34109	
0.800846	5.51147	0	0	-1.07362	-0.887021	-1.75134	-0.654554	-1.82835	-1.7397	-1.14472	-1.31478	1.24582	-0.76998	-0.354046	-1.15334	0.43438	-0.237831	-0.502695	-1.07926	-1.96239	1.30296	-0.559163	-0.834175	-1.87365	-0.84241	-1.1847	-1.60375	-0.666946	-0.575044	0.425754	0.586893	0.091863	0.648431	-1.79316	-1.31518	
0.800104	5.513	0	0	-1.08167	-0.853615	-1.76063	-0.628292	-1.83747	-1.70544	-1.16127	-1.27946	1.29587	-0.802681	-0.341852	-1.12423	0.465817	-0.260017	-0.490825	-1.05857	-1.93912	1.28776	-0.54591	-0.831269	-1.86363	-0.845646	-1.18223	-1.57579	-0.662179	-0.554435	0.441653	0.617366	0.107081	0.675258	-1.79599	-1.28926	
0.797864	5.513	0	0	-1.08973	-0.820208	-1.76992	-0.60203	-1.84659	-1.67117	-1.17782	-1.24415	1.34592	-0.835383	-0.329658	-1.09513	0.497255	-0.282203	-0.478954	-1.03788	-1.91585	1.27255	-0.532658	-0.828363	-1.85361	-0.848882	-1.17976	-1.54784	-0.657412	-0.533827	0.457553	0.647838	0.1223	0.702086	-1.79882	-1.26335	
0.793799	5.5069	0	0	-1.08993	-0.798352	-1.77057	-0.581354	-1.84776	-1.65088	-1.1818	-1.22143	1.39095	-0.864805	-0.318059	-1.07477	0.519637	-0.296828	-0.4671	-1.02378	-1.90128	1.26303	-0.524878	-0.830139	-1.8459	-0.853917	-1.17534	-1.54281	-0.652654	-0.51313	0.464756	0.684238	0.12219	0.744425	-1.79946	-1.24362	
0.787695	5.50232	0	0	-1.09012	-0.776496	-1.77123	-0.560678	-1.84893	-1.63059	-1.18578	-1.19872	1.43597	-0.894227	-0.306459	-1.05441	0.542019	-0.311453	-0.455245	-1.00969	-1.8867	1.2535	-0.517098	-0.831915	-1.8382	-0.858952	-1.17093	-1.53779	-0.647895	-0.492434	0.471959	0.720637	0.12208	0.786764	-1.80009	-1.2239	
0.780075	5.50232	0	0	-1.09032	-0.75464	-1.77188	-0.540002	-1.8501	-1.6103	-1.18976	-1.176	1.481	-0.923649	-0.29486	-1.03405	0.564402	-0.326079	-0.44339	-0.995604	-1.87212	1.24398	-0.509318	-0.83369	-1.83049	-0.863987	-1.16651	-1.53276	-0.643137	-0.471737	0.479163	0.757037	0.12197	0.829104	-1.80073	-1.20417	
0.771749	5.50232	0	0	-1.09052	-0.732784	-1.77253	-0.519326	-1.85127	-1.59	-1.19375	-1.15329	1.52603	-0.953071	-0.283261	-1.01369	0.586784	-0.340704	-0.431536	-0.981514	-1.85755	1.23445	-0.501538	-0.835466	-1.82279	-0.869022	-1.1621	-1.52774	-0.638379	-0.45104	0.486366	0.793436	0.12186	0.871443	-1.80136	-1.18444	
0.763529	5.49774	0	0	-1.08393	-0.708743	-1.77094	-0.495534	-1.84399	-1.56804	-1.19351	-1.13103	1.56938	-0.983044	-0.269966	-0.987295	0.612791	-0.359341	-0.417259	-0.960493	-1.83634	1.21895	-0.489821	-0.834846	-1.80812	-0.876951	-1.15326	-1.51767	-0.631628	-0.435912	0.501927	0.815895	0.12256	0.897535	-1.79597	-1.16374	
0.756224	5.49927	0	0	-1.07733	-0.684701	-1.76935	-0.471741	-1.83672	-1.54608	-1.19327	-1.10878	1.61274	-1.01302	-0.256671	-0.960898	0.638798	-0.377978	-0.402983	-0.939472	-1.81514	1.20346	-0.478103	-0.834225	-1.79345	-0.88488	-1.14443	-1.5076	-0.624877	-0.420785	0.517487	0.838355	0.123261	0.923627	-1.79059	-1.14305	
0.750646	5.50232	0	0	-1.07074	-0.660659	-1.76776	-0.447949	-1.82944	-1.52412	-1.19303	-1.08652	1.65609	-1.04299	-0.243377	-0.934502	0.664805	-0.396616	-0.388706	-0.918451	-1.79393	1.18796	-0.466386	-0.833604	-1.77878	-0.892808	-1.13559	-1.49754	-0.618126	-0.405657	0.533048	0.860815	0.123962	0.949719	-1.7852	-1.12235	
0.747456	5.49927	0	0	-1.06415	-0.636618	-1.76617	-0.424157	-1.82216	-1.50215	-1.19278	-1.06426	1.69944	-1.07296	-0.230082	-0.908106	0.690812	-0.415253	-0.374429	-0.89743	-1.77273	1.17246	-0.454668	-0.832984	-1.76411	-0.900737	-1.12675	-1.48747	-0.611375	-0.390529	0.548608	0.883274	0.124662	0.975811	-1.77981	-1.10165	
0.74637	5.49774	0	0	-1.06717	-0.628087	-1.77242	-0.40649	-1.82298	-1.49983	-1.19692	-1.05257	1.73345	-1.09354	-0.219531	-0.884449	0.704116	-0.422302	-0.366454	-0.878942	-1.75809	1.1629	-0.446804	-0.828177	-1.76177	-0.89895	-1.12377	-1.46956	-0.605625	-0.372511	0.563198	0.908714	0.143551	0.992792	-1.76995	-1.09352	
0.746733	5.49927	0	0	-1.07019	-0.619556	-1.77867	-0.388823	-1.8238	-1.49751	-1.20106	-1.04088	1.76746	-1.11412	-0.20898	-0.860792	0.717419	-0.429351	-0.35848	-0.860455	-1.74345	1.15333	-0.438939	-0.823371	-1.75943	-0.897162	-1.1208	-1.45165	-0.599874	-0.354494	0.577787	0.934155	0.16244	1.00977	-1.7601	-1.08539	
0.747891	5.49927	0	0	-1.07321	-0.611025	-1.78493	-0.371156	-1.82462	-1.49519	-1.20519	-1.02919	1.80147	-1.13469	-0.198429	-0.837135	0.730722	-0.4364	-0.350505	-0.841967	-1.72882	1.14377	-0.431074	-0.818564	-1.7571	-0.895374	-1.11782	-1.43374	-0.594124	-0.336476	0.592376	0.959596	0.18133	1.02675	-1.75024	-1.07726	
0.749187	5.50079	0	0	-1.07622	-0.602494	-1.79118	-0.353489	-1.82544	-1.49287	-1.20933	-1.0175	1.83548	-1.15527	-0.187878	-0.813478	0.744026	-0.443449	-0.34253	-0.82348	-1.71418	1.1342	-0.42321	-0.813757	-1.75476	-0.893587	-1.11484	-1.41583	-0.588373	-0.318458	0.606966	0.985036	0.200219	1.04374	-1.74038	-1.06913	
0.749968	5.49469	0	0	-1.07344	-0.588984	-1.7898	-0.338511	-1.82481	-1.48614	-1.20705	-1.00098	1.87114	-1.18022	-0.156432	-0.805703	0.761685	-0.456632	-0.326668	-0.813466	-1.7105	1.13015	-0.415394	-0.815546	-1.75013	-0.898268	-1.11484	-1.41583	-0.586122	-0.313383	0.609696	0.996413	0.199325	1.06037	-1.73881	-1.05555	
0.749671	5.50079	0	0	-1.07066	-0.575473	-1.78842	-0.323534	-1.82418	-1.47941	-1.20477	-0.984466	1.90681	-1.20517	-0.124987	-0.797928	0.779344	-0.469815	-0.310806	-0.803452	-1.70681	1.1261	-0.407578	-0.817334	-1.74551	-0.902948	-1.11484	-1.41583	-0.58387	-0.308308	0.612426	1.00779	0.198431	1.077	-1.73723	-1.04198	
0.748338	5.50842	0	0	-1.06788	-0.561963	-1.78703	-0.308557	-1.82355	-1.47267	-1.20248	-0.967949	1.94247	-1.23012	-0.0935408	-0.790153	0.797004	-0.482997	-0.294945	-0.793438	-1.70312	1.12205	-0.399762	-0.819123	-1.74088	-0.907629	-1.11484	-1.41583	-0.581619	-0.303232	0.615157	1.01917	0.197536	1.09363	-1.73566	-1.0284	
0.746243	5.50995	0	0	-1.0651	-0.548453	-1.78565	-0.293579	-1.82291	-1.46594	-1.2002	-0.951431	1.97814	-1.25507	-0.062095	-0.782378	0.814663	-0.49618	-0.279083	-0.783424	-1.69944	1.118	-0.391946	-0.820912	-1.73625	-0.91231	-1.11484	-1.41583	-0.579368	-0.298157	0.617887	1.03055	0.196642	1.11027	-1.73409	-1.01483	
0.743662	5.50995	0	0	-1.06434	-0.529188	-1.78533	-0.275598	-1.82165	-1.45246	-1.18515	-0.936426	2.01049	-1.27621	-0.041521	-0.765007	0.837252	-0.51094	-0.266316	-0.764501	-1.69433	1.11631	-0.384824	-0.813939	-1.73315	-0.91268	-1.11133	-1.40818	-0.578122	-0.290233	0.622991	1.0448	0.198205	1.11996	-1.73252	-1.00122	
0.740871	5.51605	0	0	-1.06359	-0.509923	-1.785	-0.257617	-1.82039	-1.43897	-1.1701	-0.921421	2.04283	-1.29734	-0.020947	-0.747635	0.859841	-0.5257	-0.253549	-0.745577	-1.68922	1.11461	-0.377702	-0.806965	-1.73005	-0.91305	-1.10782	-1.40052	-0.576877	-0.282309	0.628095	1.05905	0.199769	1.12966	-1.73095	-0.98761	
0.738145	5.52063	0	0	-1.06283	-0.490659	-1.78468	-0.239636	-1.81913	-1.42548	-1.15505	-0.906416	2.07518	-1.31848	-0.000373	-0.730263	0.882429	-0.54046	-0.240783	-0.726653	-1.68411	1.11292	-0.370579	-0.799991	-1.72694	-0.913421	-1.10431	-1.39286	-0.575631	-0.274385	0.633199	1.0733	0.201332	1.13936	-1.72938	-0.974	
0.735717	5.52063	0	0	-1.06208	-0.471394	-1.78435	-0.221655	-1.81787	-1.41199	-1.14	-0.891411	2.10753	-1.33962	0.020201	-0.712892	0.905018	-0.55522	-0.228016	-0.70773	-1.67901	1.11122	-0.363457	-0.793018	-1.72384	-0.913791	-1.10081	-1.38521	-0.574386	-0.266461	0.638303	1.08756	0.202895	1.14906	-1.72782	-0.96039	
0.733617	5.52063	0	0	-1.07193	-0.464959	-1.78315	-0.215608	-1.82635	-1.41362	-1.13574	-0.891935	2.12375	-1.35022	0.0291723	-0.694956	0.913504	-0.560765	-0.220812	-0.693629	-1.6702	1.10547	-0.3555	-0.781573	-1.71839	-0.912376	-1.10502	-1.36451	-0.570892	-0.253426	0.650198	1.10183	0.210047	1.17126	-1.724	-0.953108	
0.731814	5.52978	0	0	-1.08178	-0.458525	-1.78194	-0.209562	-1.83482	-1.41524	-1.13147	-0.89246	2.13997	-1.36082	0.0381435	-0.677019	0.92199	-0.56631	-0.213608	-0.679528	-1.6614	1.09972	-0.347544	-0.770128	-1.71295	-0.910961	-1.10923	-1.34381	-0.567398	-0.240391	0.662093	1.11611	0.217199	1.19345	-1.72019	-0.945825	
0.730277	5.53131	0	0	-1.09162	-0.45209	-1.78073	-0.203516	-1.84329	-1.41686	-1.12721	-0.892984	2.15619	-1.37142	0.0471147	-0.659083	0.930477	-0.571855	-0.206405	-0.665427	-1.6526	1.09397	-0.339587	-0.758683	-1.7075	-0.909545	-1.11344	-1.32312	-0.563904	-0.227356	0.673988	1.13038	0.224351	1.21565	-1.71638	-0.938543	
0.728975	5.52826	0	0	-1.10147	-0.445655	-1.77953	-0.197469	-1.85176	-1.41848	-1.12294	-0.893509	2.17241	-1.38201	0.056086	-0.641147	0.938963	-0.5774	-0.199201	-0.651326	-1.64379	1.08821	-0.33163	-0.747238	-1.70205	-0.90813	-1.11766	-1.30242	-0.56041	-0.214321	0.685883	1.14466	0.231503	1.23785	-1.71256	-0.931261	
0.727878	5.53131	0	0	-1.10639	-0.442441	-1.78162	-0.191537	-1.85795	-1.41802	-1.12398	-0.890565	2.18595	-1.39086	0.0655687	-0.635413	0.952369	-0.584516	-0.189622	-0.643874	-1.64966	1.09205	-0.325315	-0.744695	-1.70903	-0.905232	-1.11674	-1.30501	-0.56041	-0.214321	0.682832	1.15328	0.227783	1.24836	-1.71256	-0.931261	
0.726855	5.53589	0	0	-1.11131	-0.439226	-1.78372	-0.185605	-1.86414	-1.41755	-1.12502	-0.887621	2.19949	-1.39971	0.0750515	-0.629679	0.965774	-0.591632	-0.180043	-0.636423	-1.65553	1.09588	-0.319001	-0.742152	-1.716	-0.902334	-1.11582	-1.30761	-0.56041	-0.214321	0.679782	1.1619	0.224063	1.25888	-1.71256	-0.931261	
0.725498	5.54199	0	0	-1.11623	-0.436011	-1.78582	-0.179673	-1.87033	-1.41708	-1.12607	-0.884677	2.21303	-1.40856	0.0845343	-0.623946	0.97918	-0.598747	-0.170464	-0.628971	-1.6614	1.09972	-0.312686	-0.73961	-1.72297	-0.899436	-1.1149	-1.31021	-0.56041	-0.214321	0.676732	1.17052	0.220343	1.26939	-1.71256	-0.931261	
0.723347	5.54199	0	0	-1.12115	-0.432797	-1.78792	-0.173741	-1.87652	-1.41661	-1.12711	-0.881733	2.22657	-1.4174	0.094017	-0.618212	0.992586	-0.605863	-0.160885	-0.621519	-1.66727	1.10355	-0.306371	-0.737067	-1.72995	-0.896538	-1.11398	-1.3128	-0.56041	-0.214321	0.673681	1.17915	0.216623	1.2799	-1.71256	-0.931261	
0.719947	5.54504	0	0	-1.12419	-0.424214	-1.79227	-0.170897	-1.88126	-1.41173	-1.13554	-0.869428	2.23667	-1.42235	0.102415	-0.609356	1.00393	-0.613277	-0.156078	-0.614359	-1.67021	1.10547	-0.302413	-0.734647	-1.72608	-0.899065	-1.1149	-1.31021	-0.568938	-0.213128	0.677079	1.17914	0.214141	1.28692	-1.70807	-0.943974	
0.714837	5.55572	0	0	-1.12722	-0.415631	-1.79663	-0.168053	-1.886	-1.40685	-1.14397	-0.857123	2.24676	-1.4273	0.110814	-0.6005	1.01528	-0.620691	-0.151272	-0.607198	-1.67314	1.10739	-0.298455	-0.732227	-1.72221	-0.901592	-1.11582	-1.30761	-0.577466	-0.211936	0.680476	1.17913	0.211658	1.29393	-1.70357	-0.956686	
0.707583	5.56183	0	0	-1.13026	-0.407048	-1.80098	-0.165209	-1.89074	-1.40196	-1.15241	-0.844817	2.25685	-1.43225	0.119212	-0.591644	1.02663	-0.628106	-0.146465	-0.600038	-1.67607	1.1093	-0.294497	-0.729807	-1.71834	-0.904119	-1.11674	-1.30501	-0.585995	-0.210744	0.683874	1.17912	0.209176	1.30095	-1.69907	-0.969399	
0.69843	5.56183	0	0	-1.1333	-0.398465	-1.80533	-0.162365	-1.89548	-1.39708	-1.16084	-0.832512	2.26694	-1.4372	0.12761	-0.582788	1.03797	-0.63552	-0.141658	-0.592878	-1.67901	1.11122	-0.290539	-0.727387	-1.71448	-0.906646	-1.11766	-1.30242	-0.594523	-0.209551	0.687272	1.17911	0.206694	1.30796	-1.69457	-0.982112	
0.688437	5.5664	0	0	-1.14587	-0.405639	-1.81418	-0.165701	-1.90825	-1.41194	-1.17257	-0.833905	2.26694	-1.4372	0.12761	-0.582788	1.03797	-0.63552	-0.143261	-0.595266	-1.68563	1.11719	-0.290539	-0.727387	-1.72221	-0.901593	-1.11857	-1.29982	-0.596769	-0.214648	0.690672	1.1791	0.214452	1.3002	-1.69839	-0.989376	
0.678712	5.57098	0	0	-1.15843	-0.412813	-1.82303	-0.169038	-1.92102	-1.42681	-1.1843	-0.835298	2.26694	-1.4372	0.12761	-0.582788	1.03797	-0.63552	-0.144863	-0.597654	-1.69225	1.12316	-0.290539	-0.727387	-1.72994	-0.89654	-1.11949	-1.29722	-0.599015	-0.219746	0.694071	1.17909	0.22221	1.29243	-1.70221	-0.99664	
0.670365	5.57098	0	0	-1.171	-0.419987	-1.83188	-0.172374	-1.93379	-1.44167	-1.19603	-0.83669	2.26694	-1.4372	0.12761	-0.582788	1.03797	-0.63552	-0.146465	-0.600043	-1.69887	1.12912	-0.290539	-0.727387	-1.73768	-0.891487	-1.12041	-1.29463	-0.60126	-0.224844	0.697471	1.17908	0.229968	1.28467	-1.70603	-1.0039	
0.664501	5.56946	0	0	-1.18357	-0.427161	-1.84072	-0.17571	-1.94656	-1.45654	-1.20776	-0.838083	2.26694	-1.4372	0.12761	-0.582788	1.03797	-0.63552	-0.148068	-0.602431	-1.70548	1.13509	-0.290539	-0.727387	-1.74541	-0.886434	-1.12133	-1.29203	-0.603506	-0.229941	0.700871	1.17907	0.237726	1.2769	-1.70985	-1.01117	
0.661737	5.57251	0	0	-1.19698	-0.442513	-1.85076	-0.185083	-1.96074	-1.47573	-1.2206	-0.847778	2.25414	-1.43048	0.130308	-0.601282	1.02096	-0.624402	-0.151321	-0.620882	-1.72814	1.14826	-0.298511	-0.73885	-1.76242	-0.88029	-1.1287	-1.31511	-0.618508	-0.233249	0.690678	1.1791	0.207674	1.29114	-1.71972	-1.01933	
0.661272	5.57251	0	0	-1.21038	-0.457865	-1.86079	-0.194455	-1.97493	-1.49492	-1.23343	-0.857473	2.24134	-1.42376	0.133005	-0.619776	1.00394	-0.613285	-0.154574	-0.639333	-1.7508	1.16142	-0.306484	-0.750314	-1.77944	-0.874146	-1.13607	-1.3382	-0.63351	-0.236558	0.680484	1.17912	0.177622	1.30539	-1.72959	-1.02749	
0.662055	5.57251	0	0	-1.22378	-0.473216	-1.87082	-0.203827	-1.98911	-1.51411	-1.24626	-0.867168	2.22854	-1.41704	0.135703	-0.63827	0.98693	-0.602167	-0.157827	-0.657785	-1.77346	1.17458	-0.314457	-0.761777	-1.79645	-0.868002	-1.14345	-1.36128	-0.648513	-0.239866	0.670291	1.17915	0.147571	1.31963	-1.73946	-1.03566	
0.663036	5.57098	0	0	-1.23718	-0.488568	-1.88085	-0.2132	-2.0033	-1.5333	-1.25909	-0.876863	2.21574	-1.41032	0.138401	-0.656764	0.969915	-0.591049	-0.16108	-0.676236	-1.79612	1.18774	-0.322429	-0.77324	-1.81347	-0.861858	-1.15082	-1.38437	-0.663515	-0.243174	0.660097	1.17918	0.117519	1.33388	-1.74933	-1.04382	
0.663162	5.57251	0	0	-1.2428	-0.504562	-1.89415	-0.22267	-2.01601	-1.54803	-1.27293	-0.883601	2.19874	-1.39757	0.132187	-0.671776	0.950107	-0.578106	-0.173073	-0.690621	-1.82022	1.20514	-0.335041	-0.778308	-1.83581	-0.848915	-1.16002	-1.40218	-0.671465	-0.2663	0.657026	1.15912	0.111671	1.30812	-1.76076	-1.06549	
0.661541	5.57709	0	0	-1.24842	-0.520555	-1.90744	-0.232139	-2.02872	-1.56276	-1.28677	-0.89034	2.18174	-1.38482	0.125974	-0.686787	0.9303	-0.565164	-0.185066	-0.705007	-1.84433	1.22253	-0.347654	-0.783376	-1.85815	-0.835973	-1.16922	-1.42	-0.679415	-0.289427	0.653954	1.13907	0.105822	1.28237	-1.77219	-1.08715	
0.65843	5.57251	0	0	-1.25403	-0.536549	-1.92074	-0.241609	-2.04144	-1.57749	-1.30061	-0.897079	2.16474	-1.37206	0.11976	-0.701799	0.910492	-0.552221	-0.197059	-0.719392	-1.86844	1.23993	-0.360266	-0.788444	-1.8805	-0.82303	-1.17842	-1.43781	-0.687366	-0.312553	0.650883	1.11901	0.0999743	1.25661	-1.78361	-1.10882	
0.654589	5.56946	0	0	-1.25965	-0.552543	-1.93403	-0.251078	-2.05415	-1.59222	-1.31445	-0.903817	2.14774	-1.35931	0.113547	-0.716811	0.890684	-0.539278	-0.209052	-0.733778	-1.89254	1.25732	-0.372878	-0.793512	-1.90284	-0.810087	-1.18762	-1.45563	-0.695316	-0.33568	0.647811	1.09896	0.094126	1.23086	-1.79504	-1.13049	
0.650778	5.57098	0	0	-1.27114	-0.562464	-1.94402	-0.2604	-2.06377	-1.60713	-1.32083	-0.908644	2.13423	-1.35048	0.117309	-0.738288	0.870922	-0.526365	-0.217075	-0.752387	-1.91217	1.2685	-0.381584	-0.802765	-1.91669	-0.804353	-1.19461	-1.47085	-0.701031	-0.353652	0.645082	1.08754	0.0805712	1.21294	-1.7944	-1.15026	
0.64776	5.57098	0	0	-1.28264	-0.572385	-1.95401	-0.269721	-2.0734	-1.62203	-1.32722	-0.913471	2.12072	-1.34166	0.121071	-0.759765	0.85116	-0.513452	-0.225098	-0.770996	-1.93179	1.27968	-0.39029	-0.812018	-1.93053	-0.798619	-1.2016	-1.48608	-0.706746	-0.371625	0.642353	1.07612	0.0670165	1.19502	-1.79375	-1.17004	
0.64623	5.56488	0	0	-1.29413	-0.582307	-1.964	-0.279043	-2.08303	-1.63694	-1.33361	-0.918298	2.10721	-1.33283	0.124834	-0.781242	0.831398	-0.50054	-0.233121	-0.789605	-1.95141	1.29086	-0.398997	-0.821271	-1.94437	-0.792885	-1.20859	-1.5013	-0.71246	-0.389597	0.639624	1.0647	0.0534618	1.1771	-1.79311	-1.18981	
0.646013	5.55878	0	0	-1.30562	-0.592228	-1.97399	-0.288364	-2.09265	-1.65185	-1.34	-0.923125	2.0937	-1.324	0.128596	-0.802719	0.811636	-0.487627	-0.241144	-0.808214	-1.97104	1.30204	-0.407703	-0.830524	-1.95822	-0.787151	-1.21558	-1.51653	-0.718175	-0.40757	0.636895	1.05328	0.039907	1.15918	-1.79246	-1.20959	
0.646315	5.5603	0	0	-1.32182	-0.609876	-1.98515	-0.303647	-2.10819	-1.67512	-1.35275	-0.932759	2.07213	-1.3099	0.124081	-0.811629	0.783483	-0.469231	-0.253099	-0.822476	-1.98922	1.31556	-0.422552	-0.829109	-1.97739	-0.774623	-1.22399	-1.51893	-0.724642	-0.412008	0.636895	1.05328	0.0475995	1.15148	-1.79849	-1.21048	
0.646332	5.55725	0	0	-1.33802	-0.627525	-1.99632	-0.318929	-2.12372	-1.6984	-1.36551	-0.942392	2.05056	-1.29581	0.119565	-0.820539	0.755331	-0.450836	-0.265054	-0.836739	-2.00741	1.32909	-0.4374	-0.827693	-1.99657	-0.762095	-1.23241	-1.52133	-0.731109	-0.416446	0.636895	1.05328	0.055292	1.14378	-1.80452	-1.21137	
0.645257	5.55115	0	0	-1.35422	-0.645173	-2.00748	-0.334212	-2.13926	-1.72168	-1.37826	-0.952025	2.02898	-1.28171	0.11505	-0.829448	0.727179	-0.432441	-0.277009	-0.851001	-2.02559	1.34262	-0.452249	-0.826277	-2.01574	-0.749566	-1.24083	-1.52373	-0.737576	-0.420884	0.636895	1.05328	0.0629845	1.13608	-1.81056	-1.21226	
0.642312	5.54504	0	0	-1.37041	-0.662821	-2.01864	-0.349495	-2.15479	-1.74495	-1.39102	-0.961659	2.00741	-1.26761	0.110535	-0.838358	0.699026	-0.414045	-0.288964	-0.865263	-2.04378	1.35614	-0.467098	-0.824862	-2.03491	-0.737038	-1.24925	-1.52613	-0.744043	-0.425322	0.636895	1.05328	0.070677	1.12838	-1.81659	-1.21314	
0.637364	5.54657	0	0	-1.37315	-0.676189	-2.02637	-0.355709	-2.16358	-1.76199	-1.38689	-0.973321	1.99471	-1.26096	0.114267	-0.85973	0.680131	-0.403342	-0.289075	-0.885503	-2.06407	1.3694	-0.48115	-0.825612	-2.05328	-0.726692	-1.25932	-1.54123	-0.751497	-0.426941	0.634871	1.059	0.0629845	1.13608	-1.82261	-1.21403	
0.630964	5.54199	0	0	-1.37588	-0.689557	-2.03409	-0.361923	-2.17236	-1.77903	-1.38276	-0.984984	1.98201	-1.25431	0.117998	-0.881102	0.661236	-0.39264	-0.289186	-0.905744	-2.08436	1.38266	-0.495201	-0.826361	-2.07165	-0.716345	-1.26939	-1.55632	-0.758952	-0.428561	0.632846	1.06472	0.055292	1.14378	-1.82864	-1.21492	
0.623697	5.53589	0	0	-1.37861	-0.702924	-2.04182	-0.368136	-2.18115	-1.79607	-1.37864	-0.996646	1.96932	-1.24766	0.12173	-0.902474	0.64234	-0.381937	-0.289297	-0.925984	-2.10465	1.39591	-0.509252	-0.827111	-2.09002	-0.705998	-1.27947	-1.57142	-0.766406	-0.430181	0.630822	1.07044	0.0475995	1.15148	-1.83466	-1.21581	
0.616145	5.53589	0	0	-1.38135	-0.716292	-2.04954	-0.37435	-2.18993	-1.8131	-1.37451	-1.00831	1.95662	-1.24101	0.125462	-0.923846	0.623445	-0.371234	-0.289408	-0.946225	-2.12494	1.40917	-0.523304	-0.827861	-2.10839	-0.695652	-1.28954	-1.58652	-0.77386	-0.4318	0.628798	1.07616	0.039907	1.15918	-1.84069	-1.2167	
0.608882	5.54199	0	0	-1.38421	-0.718747	-2.0528	-0.374468	-2.1928	-1.82172	-1.37554	-1.00539	1.95124	-1.2375	0.12981	-0.936134	0.612236	-0.363909	-0.289449	-0.952956	-2.14229	1.42051	-0.529556	-0.830388	-2.12366	-0.685672	-1.29651	-1.60162	-0.77733	-0.444654	0.625059	1.06761	0.0380477	1.13638	-1.83625	-1.22924	
0.602272	5.54352	0	0	-1.38707	-0.721201	-2.05607	-0.374587	-2.19567	-1.83033	-1.37657	-1.00248	1.94587	-1.23398	0.134158	-0.948422	0.601026	-0.356585	-0.28949	-0.959686	-2.15964	1.43185	-0.535809	-0.832915	-2.13894	-0.675692	-1.30347	-1.61672	-0.780799	-0.457507	0.621321	1.05907	0.0361885	1.11358	-1.83181	-1.24179	
0.596517	5.54809	0	0	-1.38993	-0.723656	-2.05933	-0.374705	-2.19854	-1.83894	-1.3776	-0.999566	1.94049	-1.23047	0.138506	-0.960711	0.589816	-0.349261	-0.28953	-0.966417	-2.177	1.44319	-0.542061	-0.835443	-2.15421	-0.665711	-1.31044	-1.63182	-0.784269	-0.47036	0.617582	1.05052	0.0343292	1.09079	-1.82738	-1.25433	
0.591809	5.55267	0	0	-1.39279	-0.72611	-2.06259	-0.374823	-2.2014	-1.84756	-1.37864	-0.996652	1.93511	-1.22696	0.142854	-0.972999	0.578607	-0.341936	-0.289571	-0.973148	-2.19435	1.45453	-0.548314	-0.83797	-2.16948	-0.655731	-1.3174	-1.64692	-0.787738	-0.483214	0.613844	1.04197	0.03247	1.06799	-1.82294	-1.26687	
0.588344	5.5603	0	0	-1.39664	-0.725753	-2.07118	-0.36921	-2.20123	-1.8564	-1.3776	-0.999566	1.93167	-1.22306	0.148923	-0.979324	0.57505	-0.337968	-0.287197	-0.973011	-2.20226	1.45805	-0.54837	-0.84454	-2.17482	-0.657205	-1.31908	-1.65954	-0.79022	-0.498832	0.612124	1.02774	0.0189415	1.05025	-1.83276	-1.27489	
0.586243	5.5664	0	0	-1.40049	-0.725396	-2.07977	-0.363598	-2.20106	-1.86524	-1.37657	-1.00248	1.92822	-1.21917	0.154992	-0.985649	0.571493	-0.334	-0.284824	-0.972873	-2.21016	1.46158	-0.548426	-0.85111	-2.18017	-0.65868	-1.32075	-1.67217	-0.792701	-0.514451	0.610405	1.0135	0.005413	1.03251	-1.84259	-1.28291	
0.585201	5.56335	0	0	-1.40435	-0.72504	-2.08836	-0.357985	-2.20089	-1.87408	-1.37554	-1.00539	1.92478	-1.21527	0.16106	-0.991975	0.567937	-0.330032	-0.28245	-0.972735	-2.21807	1.4651	-0.548481	-0.85768	-2.18551	-0.660154	-1.32243	-1.68479	-0.795183	-0.530069	0.608685	0.99927	-0.0081155	1.01477	-1.85241	-1.29093	
0.584758	5.57251	0	0	-1.4082	-0.724683	-2.09695	-0.352372	-2.20072	-1.88291	-1.37451	-1.00831	1.92134	-1.21137	0.167129	-0.9983	0.56438	-0.326064	-0.280076	-0.972598	-2.22598	1.46862	-0.548537	-0.86425	-2.19085	-0.661629	-1.32411	-1.69742	-0.797664	-0.545688	0.606966	0.985036	-0.021644	0.997028	-1.86223	-1.29895	
0.584454	5.57709	0	0	-1.4149	-0.72678	-2.1045	-0.349691	-2.21047	-1.88875	-1.38397	-1.00437	1.91596	-1.20786	0.165403	-1.00425	0.561581	-0.324235	-0.280076	-0.972598	-2.23676	1.47403	-0.552448	-0.866645	-2.19771	-0.658802	-1.32888	-1.70995	-0.801141	-0.558465	0.59884	0.979397	-0.0299452	0.978617	-1.86983	-1.31319	
0.583828	5.57861	0	0	-1.42161	-0.728877	-2.11204	-0.347009	-2.22021	-1.89458	-1.39343	-1.00042	1.91059	-1.20435	0.163676	-1.01019	0.558782	-0.322406	-0.280076	-0.972598	-2.24754	1.47943	-0.556359	-0.86904	-2.20457	-0.655975	-1.33366	-1.72248	-0.804617	-0.571243	0.590715	0.973758	-0.0382465	0.960206	-1.87743	-1.32743	
0.582637	5.56946	0	0	-1.42831	-0.730975	-2.11959	-0.344328	-2.22996	-1.90041	-1.4029	-0.996481	1.90522	-1.20084	0.161949	-1.01614	0.555982	-0.320577	-0.280076	-0.972598	-2.25832	1.48483	-0.56027	-0.871436	-2.21143	-0.653147	-1.33843	-1.73501	-0.808094	-0.584021	0.582589	0.968119	-0.0465477	0.941796	-1.88503	-1.34167	
0.581125	5.57098	0	0	-1.43502	-0.733072	-2.12713	-0.341647	-2.23971	-1.90624	-1.41236	-0.992538	1.89985	-1.19733	0.160223	-1.02208	0.553183	-0.318748	-0.280076	-0.972598	-2.26911	1.49023	-0.564181	-0.873831	-2.21828	-0.65032	-1.3432	-1.74754	-0.811571	-0.596798	0.574463	0.96248	-0.054849	0.923385	-1.89263	-1.35591	
0.579597	5.57556	0	0	-1.44444	-0.748466	-2.13054	-0.35066	-2.24688	-1.92762	-1.41675	-1.01425	1.8918	-1.19207	0.170625	-1.04066	0.544791	-0.313265	-0.280896	-0.977127	-2.27411	1.49186	-0.561904	-0.880266	-2.22514	-0.647497	-1.3427	-1.75763	-0.816037	-0.606753	0.576116	0.948285	-0.055185	0.910398	-1.89863	-1.35678	
0.578361	5.56946	0	0	-1.45386	-0.763859	-2.13394	-0.359672	-2.25404	-1.94901	-1.42115	-1.03597	1.88375	-1.18681	0.181027	-1.05923	0.536399	-0.307781	-0.281716	-0.981656	-2.27912	1.4935	-0.559627	-0.886701	-2.23199	-0.644673	-1.34219	-1.76772	-0.820503	-0.616709	0.577768	0.93409	-0.055521	0.897412	-1.90463	-1.35766	
0.577713	5.5664	0	0	-1.46328	-0.779252	-2.13734	-0.368684	-2.26121	-1.9704	-1.42555	-1.05768	1.8757	-1.18155	0.191428	-1.0778	0.528007	-0.302297	-0.282536	-0.986186	-2.28413	1.49513	-0.55735	-0.893136	-2.23884	-0.641849	-1.34169	-1.77781	-0.824969	-0.626664	0.57942	0.919896	-0.055857	0.884425	-1.91063	-1.35853	
0.57777	5.56793	0	0	-1.4727	-0.794646	-2.14074	-0.377697	-2.26837	-1.99178	-1.42995	-1.0794	1.86765	-1.17629	0.20183	-1.09637	0.519615	-0.296814	-0.283356	-0.990715	-2.28913	1.49676	-0.555073	-0.899571	-2.24569	-0.639026	-1.34118	-1.78791	-0.829435	-0.636619	0.581073	0.905701	-0.056193	0.871439	-1.91663	-1.3594	
0.578497	5.56335	0	0	-1.47247	-0.816281	-2.14311	-0.389607	-2.27554	-2.01307	-1.41651	-1.10601	1.85425	-1.16754	0.202913	-1.09943	0.513268	-0.291023	-0.284952	-0.993046	-2.29853	1.50453	-0.558166	-0.89755	-2.2571	-0.631572	-1.35314	-1.7801	-0.837841	-0.635412	0.572312	0.911425	-0.063817	0.87906	-1.91443	-1.36563	
0.579859	5.55572	0	0	-1.47224	-0.837916	-2.14548	-0.401516	-2.28271	-2.03436	-1.40307	-1.13262	1.84085	-1.15878	0.203995	-1.10249	0.506922	-0.285231	-0.286549	-0.995378	-2.30792	1.51231	-0.561259	-0.895528	-2.26851	-0.624119	-1.36509	-1.77229	-0.846247	-0.634205	0.563551	0.91715	-0.071441	0.886681	-1.91223	-1.37186	
0.581819	5.55115	0	0	-1.472	-0.859552	-2.14785	-0.413426	-2.28988	-2.05564	-1.38963	-1.15923	1.82745	-1.15002	0.205078	-1.10555	0.500575	-0.27944	-0.288145	-0.99771	-2.31731	1.52009	-0.564352	-0.893507	-2.27991	-0.616665	-1.37704	-1.76448	-0.854652	-0.632999	0.554791	0.922874	-0.079065	0.894302	-1.91002	-1.37809	
0.584334	5.55267	0	0	-1.47177	-0.881187	-2.15022	-0.425335	-2.29705	-2.07693	-1.37619	-1.18583	1.81405	-1.14127	0.206161	-1.10861	0.494228	-0.273648	-0.289742	-1.00004	-2.32671	1.52787	-0.567445	-0.891486	-2.29132	-0.609212	-1.389	-1.75666	-0.863058	-0.631792	0.54603	0.928599	-0.086689	0.901923	-1.90782	-1.38432	
0.587339	5.54809	0	0	-1.47265	-0.889188	-2.15347	-0.425453	-2.2961	-2.08791	-1.36469	-1.19558	1.81672	-1.14302	0.221126	-1.11839	0.506169	-0.283095	-0.280289	-1.00622	-2.33246	1.53163	-0.565111	-0.891363	-2.29588	-0.604578	-1.39785	-1.74893	-0.863058	-0.631792	0.543013	0.937124	-0.0887955	0.921802	-1.91381	-1.38519	
0.590761	5.54047	0	0	-1.47352	-0.89719	-2.15671	-0.425571	-2.29515	-2.09889	-1.35318	-1.20532	1.8194	-1.14477	0.236091	-1.12817	0.518109	-0.292541	-0.270836	-1.01239	-2.33821	1.53539	-0.562777	-0.891239	-2.30044	-0.599944	-1.40671	-1.74119	-0.863058	-0.631792	0.539996	0.94565	-0.090902	0.941681	-1.91981	-1.38605	
0.594526	5.53894	0	0	-1.4744	-0.905191	-2.15996	-0.42569	-2.2942	-2.10987	-1.34168	-1.21506	1.82208	-1.14652	0.251056	-1.13795	0.530049	-0.301987	-0.261383	-1.01857	-2.34397	1.53915	-0.560442	-0.891116	-2.305	-0.595311	-1.41557	-1.73345	-0.863058	-0.631792	0.53698	0.954176	-0.0930085	0.96156	-1.92581	-1.38692	
0.598562	5.54047	0	0	-1.47528	-0.913192	-2.16321	-0.425808	-2.29325	-2.12085	-1.33017	-1.2248	1.82476	-1.14827	0.266021	-1.14773	0.54199	-0.311434	-0.25193	-1.02475	-2.34972	1.54291	-0.558108	-0.890993	-2.30956	-0.590677	-1.42443	-1.72571	-0.863058	-0.631792	0.533963	0.962701	-0.095115	0.981439	-1.9318	-1.38779	
0.602704	5.54047	0	0	-1.47144	-0.913556	-2.15465	-0.431401	-2.29102	-2.11886	-1.30699	-1.23327	1.83624	-1.15741	0.288443	-1.14589	0.565158	-0.328217	-0.240813	-1.02188	-2.34472	1.54129	-0.548002	-0.892648	-2.31032	-0.588526	-1.42135	-1.72577	-0.871452	-0.63059	0.527573	0.971249	-0.105181	0.995961	-1.93779	-1.38866	
0.606552	5.54047	0	0	-1.4676	-0.913921	-2.14609	-0.436994	-2.28879	-2.11686	-1.28381	-1.24174	1.84772	-1.16656	0.310864	-1.14406	0.588326	-0.345	-0.229696	-1.01902	-2.33973	1.53966	-0.537896	-0.894303	-2.31108	-0.586374	-1.41827	-1.72583	-0.879847	-0.629388	0.521184	0.979798	-0.115247	1.01048	-1.94378	-1.38953	
0.609662	5.54047	0	0	-1.46377	-0.914285	-2.13753	-0.442587	-2.28656	-2.11487	-1.26063	-1.25021	1.8592	-1.17571	0.333286	-1.14222	0.611495	-0.361782	-0.21858	-1.01615	-2.33473	1.53804	-0.52779	-0.895958	-2.31185	-0.584222	-1.41519	-1.72589	-0.888242	-0.628186	0.514794	0.988347	-0.125313	1.02501	-1.94977	-1.3904	
0.611593	5.54352	0	0	-1.45993	-0.91465	-2.12897	-0.44818	-2.28433	-2.11287	-1.23744	-1.25868	1.87068	-1.18485	0.355708	-1.14039	0.634663	-0.378565	-0.207463	-1.01329	-2.32973	1.53642	-0.517684	-0.897613	-2.31261	-0.582071	-1.4121	-1.72595	-0.896636	-0.626984	0.508404	0.996895	-0.135379	1.03953	-1.95576	-1.39126	
0.611905	5.54809	0	0	-1.45905	-0.906647	-2.12881	-0.439316	-2.28305	-2.09989	-1.22986	-1.2458	1.88947	-1.19714	0.367747	-1.1199	0.66276	-0.396924	-0.197055	-1.00148	-2.31897	1.53103	-0.508322	-0.897127	-2.30501	-0.587037	-1.40864	-1.71845	-0.897875	-0.634732	0.513787	0.99119	-0.132941	1.03264	-1.95356	-1.39748	
0.610485	5.54504	0	0	-1.45817	-0.898643	-2.12866	-0.430453	-2.28177	-2.0869	-1.22228	-1.23291	1.90827	-1.20942	0.379785	-1.09942	0.690858	-0.415284	-0.186648	-0.989672	-2.30821	1.52564	-0.49896	-0.896641	-2.29741	-0.592002	-1.40517	-1.71095	-0.899115	-0.642481	0.519171	0.985486	-0.130502	1.02575	-1.95136	-1.4037	
0.607871	5.54504	0	0	-1.4573	-0.89064	-2.1285	-0.421589	-2.28049	-2.07391	-1.2147	-1.22003	1.92707	-1.2217	0.391824	-1.07893	0.718955	-0.433643	-0.17624	-0.977864	-2.29744	1.52025	-0.489597	-0.896156	-2.28981	-0.596968	-1.4017	-1.70345	-0.900354	-0.65023	0.524555	0.979781	-0.128064	1.01886	-1.94916	-1.40992	
0.604678	5.54962	0	0	-1.45642	-0.882637	-2.12834	-0.412725	-2.27921	-2.06092	-1.20712	-1.20714	1.94586	-1.23398	0.403863	-1.05845	0.747052	-0.452002	-0.165832	-0.966056	-2.28668	1.51486	-0.480235	-0.89567	-2.28221	-0.601934	-1.39823	-1.69595	-0.901593	-0.657978	0.529938	0.974076	-0.125626	1.01196	-1.94697	-1.41613	
0.601522	5.54657	0	0	-1.45455	-0.877416	-2.12938	-0.409807	-2.27714	-2.05016	-1.20069	-1.20241	1.96201	-1.24453	0.414164	-1.04384	0.772419	-0.468577	-0.160967	-0.952274	-2.27151	1.5033	-0.473964	-0.893158	-2.27841	-0.604418	-1.39477	-1.68843	-0.9048	-0.660157	0.528931	0.976921	-0.125626	1.01196	-1.95075	-1.42321	
0.599007	5.54352	0	0	-1.45269	-0.872194	-2.13041	-0.406889	-2.27506	-2.03939	-1.19426	-1.19767	1.97815	-1.25508	0.424465	-1.02923	0.797785	-0.485152	-0.156101	-0.938492	-2.25633	1.49174	-0.467693	-0.890645	-2.2746	-0.606903	-1.3913	-1.68091	-0.908007	-0.662336	0.527925	0.979765	-0.125626	1.01196	-1.95454	-1.43028	
0.597378	5.54504	0	0	-1.45083	-0.866973	-2.13144	-0.403971	-2.27299	-2.02863	-1.18783	-1.19294	1.9943	-1.26563	0.434766	-1.01462	0.823152	-0.501727	-0.151235	-0.924711	-2.24115	1.48018	-0.461423	-0.888133	-2.2708	-0.609387	-1.38783	-1.6734	-0.911215	-0.664516	0.526919	0.98261	-0.125626	1.01196	-1.95833	-1.43735	
0.596463	5.54657	0	0	-1.44896	-0.861751	-2.13247	-0.401053	-2.27092	-2.01786	-1.18139	-1.1882	2.01044	-1.27618	0.445067	-1.00001	0.848518	-0.518302	-0.14637	-0.910929	-2.22598	1.46862	-0.455152	-0.885621	-2.267	-0.611872	-1.38436	-1.66588	-0.914422	-0.666695	0.525912	0.985454	-0.125626	1.01196	-1.96212	-1.44443	
0.596065	5.54657	0	0	-1.45664	-0.861028	-2.13573	-0.401172	-2.27777	-2.01512	-1.18242	-1.1853	2.02046	-1.28108	0.448581	-0.988042	0.859059	-0.523546	-0.142373	-0.908444	-2.21732	1.46296	-0.451285	-0.889801	-2.26624	-0.614024	-1.38526	-1.66334	-0.917627	-0.668873	0.529285	0.985438	-0.128064	1.01886	-1.95773	-1.45683	
0.595988	5.53894	0	0	-1.46432	-0.860305	-2.13898	-0.401292	-2.28462	-2.01237	-1.18345	-1.18239	2.03048	-1.28598	0.452095	-0.976074	0.869601	-0.52879	-0.138375	-0.90596	-2.20865	1.4573	-0.447418	-0.893981	-2.26548	-0.616175	-1.38616	-1.66079	-0.920833	-0.67105	0.532657	0.985422	-0.130502	1.02575	-1.95334	-1.46923	
0.596055	5.54199	0	0	-1.47199	-0.859583	-2.14223	-0.401411	-2.29148	-2.00963	-1.18448	-1.17948	2.04051	-1.29089	0.45561	-0.964107	0.880143	-0.534034	-0.134378	-0.903475	-2.19999	1.45164	-0.44355	-0.898161	-2.26471	-0.618327	-1.38706	-1.65824	-0.924038	-0.673228	0.53603	0.985406	-0.132941	1.03264	-1.94895	-1.48164	
0.596296	5.54047	0	0	-1.47967	-0.85886	-2.14548	-0.40153	-2.29833	-2.00688	-1.18551	-1.17657	2.05053	-1.29579	0.459124	-0.952139	0.890684	-0.539278	-0.130381	-0.90099	-2.19133	1.44598	-0.439683	-0.902341	-2.26395	-0.620479	-1.38796	-1.6557	-0.927244	-0.675406	0.539402	0.98539	-0.135379	1.03953	-1.94456	-1.49404	
0.596875	5.53894	0	0	-1.48044	-0.877649	-2.14682	-0.416336	-2.30183	-2.0219	-1.19091	-1.18421	2.05129	-1.29793	0.45014	-0.948648	0.88579	-0.537724	-0.135204	-0.908028	-2.19346	1.44573	-0.446718	-0.902701	-2.26776	-0.617995	-1.39195	-1.65309	-0.928484	-0.683133	0.543783	0.982527	-0.132941	1.03264	-1.95653	-1.49575	
0.59796	5.53284	0	0	-1.4812	-0.896438	-2.14816	-0.431143	-2.30533	-2.03691	-1.19631	-1.19186	2.05204	-1.30007	0.441156	-0.945157	0.880896	-0.53617	-0.140027	-0.915065	-2.19559	1.44548	-0.453753	-0.903061	-2.27156	-0.61551	-1.39594	-1.65049	-0.929723	-0.690859	0.548165	0.979664	-0.130502	1.02575	-1.96849	-1.49745	
0.599718	5.53131	0	0	-1.48197	-0.915227	-2.1495	-0.445949	-2.30883	-2.05193	-1.20172	-1.1995	2.0528	-1.30221	0.432172	-0.941666	0.876001	-0.534616	-0.14485	-0.922103	-2.19772	1.44523	-0.460788	-0.903421	-2.27536	-0.613026	-1.39992	-1.64788	-0.930963	-0.698586	0.552547	0.976801	-0.128064	1.01886	-1.98045	-1.49916	
0.602297	5.53284	0	0	-1.48273	-0.934016	-2.15084	-0.460756	-2.31233	-2.06695	-1.20712	-1.20714	2.05356	-1.30435	0.423188	-0.938175	0.871107	-0.533062	-0.149673	-0.929141	-2.19986	1.44499	-0.467823	-0.903781	-2.27916	-0.610541	-1.40391	-1.64528	-0.932203	-0.706313	0.556928	0.973938	-0.125626	1.01196	-1.99241	-1.50087	
0.60574	5.53131	0	0	-1.47968	-0.953111	-2.15117	-0.478425	-2.3082	-2.0869	-1.20944	-1.22347	2.04817	-1.30083	0.434789	-0.960014	0.862637	-0.527528	-0.155319	-0.940707	-2.20927	1.45278	-0.481807	-0.897945	-2.29436	-0.600614	-1.41225	-1.64765	-0.932203	-0.706313	0.549524	0.985343	-0.121655	1.01467	-2.00057	-1.49553	
0.610055	5.52215	0	0	-1.47662	-0.972206	-2.15149	-0.496094	-2.30408	-2.10686	-1.21176	-1.23979	2.04277	-1.29731	0.446389	-0.981854	0.854168	-0.521993	-0.160965	-0.952273	-2.21869	1.46058	-0.495792	-0.89211	-2.30955	-0.590687	-1.4206	-1.65003	-0.932203	-0.706313	0.54212	0.996748	-0.117684	1.01737	-2.00873	-1.4902	
0.615245	5.52368	0	0	-1.47357	-0.991302	-2.15181	-0.513764	-2.29995	-2.12681	-1.21408	-1.25611	2.03738	-1.29378	0.45799	-1.00369	0.845699	-0.516459	-0.16661	-0.96384	-2.22811	1.46837	-0.509777	-0.886274	-2.32474	-0.580759	-1.42894	-1.65241	-0.932203	-0.706313	0.534716	1.00815	-0.113713	1.02007	-2.01689	-1.48487	
0.621317	5.52673	0	0	-1.47052	-1.0104	-2.15213	-0.531433	-2.29582	-2.14677	-1.2164	-1.27243	2.03199	-1.29026	0.469591	-1.02553	0.837229	-0.510925	-0.172256	-0.975406	-2.23752	1.47617	-0.523761	-0.880439	-2.33993	-0.570832	-1.43729	-1.65478	-0.932203	-0.706313	0.527312	1.01956	-0.109742	1.02278	-2.02505	-1.47954	
0.628182	5.52521	0	0	-1.47632	-1.00447	-2.15332	-0.537347	-2.30123	-2.13979	-1.21743	-1.26954	2.03814	-1.29592	0.470011	-1.03767	0.835164	-0.511219	-0.172354	-0.988874	-2.24542	1.47968	-0.533107	-0.880933	-2.34676	-0.568026	-1.44292	-1.66478	-0.93835	-0.700163	0.523278	1.03096	-0.118592	1.03386	-2.0332	-1.47421	
0.635232	5.52215	0	0	-1.48211	-0.998551	-2.15451	-0.543261	-2.30663	-2.13281	-1.21845	-1.26664	2.04429	-1.30158	0.470432	-1.0498	0.833099	-0.511514	-0.172453	-1.00234	-2.25331	1.4832	-0.542453	-0.881426	-2.35358	-0.56522	-1.44856	-1.67477	-0.944498	-0.694013	0.519243	1.04236	-0.127441	1.04494	-2.04136	-1.46888	
0.641685	5.52826	0	0	-1.48791	-0.992627	-2.15571	-0.549175	-2.31203	-2.12583	-1.21948	-1.26374	2.05044	-1.30725	0.470853	-1.06194	0.831035	-0.511808	-0.172551	-1.01581	-2.26121	1.48672	-0.551798	-0.881919	-2.36041	-0.562414	-1.45419	-1.68477	-0.950646	-0.687863	0.515209	1.05376	-0.13629	1.05603	-2.04951	-1.46356	
0.646757	5.53284	0	0	-1.49371	-0.986704	-2.1569	-0.555089	-2.31744	-2.11885	-1.2205	-1.26084	2.05659	-1.31291	0.471273	-1.07407	0.82897	-0.512103	-0.17265	-1.02928	-2.26911	1.49023	-0.561144	-0.882413	-2.36723	-0.559608	-1.45983	-1.69477	-0.956793	-0.681713	0.511175	1.06517	-0.14514	1.06711	-2.05766	-1.45823	
0.649664	5.53131	0	0	-1.48713	-0.973897	-2.15793	-0.552188	-2.31234	-2.10837	-1.21407	-1.25613	2.06814	-1.3221	0.484892	-1.06874	0.838193	-0.519772	-0.169487	-1.03134	-2.26334	1.48647	-0.562719	-0.884681	-2.36723	-0.559608	-1.45496	-1.6999	-0.960974	-0.681115	0.511175	1.06517	-0.150324	1.06785	-2.068	-1.44672	
0.649722	5.52978	0	0	-1.48055	-0.961091	-2.15895	-0.549287	-2.30724	-2.09789	-1.20765	-1.25141	2.07969	-1.33129	0.498511	-1.0634	0.847415	-0.527442	-0.166324	-1.03341	-2.25757	1.4827	-0.564294	-0.88695	-2.36723	-0.559608	-1.45008	-1.70504	-0.965155	-0.680516	0.511175	1.06517	-0.155508	1.06859	-2.07833	-1.4352	
0.647266	5.54047	0	0	-1.47397	-0.948284	-2.15998	-0.546386	-2.30215	-2.08741	-1.20122	-1.24669	2.09124	-1.34049	0.51213	-1.05806	0.856638	-0.535111	-0.163162	-1.03548	-2.25181	1.47893	-0.56587	-0.889218	-2.36723	-0.559608	-1.44521	-1.71018	-0.969335	-0.679917	0.511175	1.06517	-0.160692	1.06932	-2.08867	-1.42369	
0.643242	5.54352	0	0	-1.46739	-0.935477	-2.161	-0.543485	-2.29705	-2.07693	-1.19479	-1.24198	2.10279	-1.34968	0.525749	-1.05273	0.865861	-0.542781	-0.159999	-1.03754	-2.24604	1.47516	-0.567445	-0.891486	-2.36723	-0.559608	-1.44033	-1.71531	-0.973516	-0.679319	0.511175	1.06517	-0.165876	1.07006	-2.099	-1.41218	
0.638604	5.54352	0	5	-1.46476	-0.911457	-2.16409	-0.534776	-2.29594	-2.05515	-1.18514	-1.23489	2.1163	-1.35851	0.534343	-1.04408	0.877919	-0.552302	-0.156782	-1.03288	-2.23951	1.46926	-0.566686	-0.89363	-2.35889	-0.566716	-1.44085	-1.70521	-0.96417	-0.683293	0.512527	1.07086	-0.167096	1.07351	-2.0849	-1.41663	
0.634307	5.54352	0	5	-1.46213	-0.887437	-2.16717	-0.526068	-2.29483	-2.03338	-1.17548	-1.2278	2.12981	-1.36733	0.542937	-1.03543	0.889977	-0.561824	-0.153566	-1.02822	-2.23299	1.46335	-0.565928	-0.895774	-2.35054	-0.573824	-1.44137	-1.69511	-0.954823	-0.687267	0.51388	1.07656	-0.168317	1.07695	-2.07079	-1.42109	
0.631246	5.55115	0	5	-1.4595	-0.863417	-2.17025	-0.517359	-2.29372	-2.0116	-1.16583	-1.22071	2.14332	-1.37616	0.551531	-1.02678	0.902035	-0.571346	-0.15035	-1.02356	-2.22646	1.45744	-0.565169	-0.897918	-2.34219	-0.580931	-1.44189	-1.685	-0.945477	-0.69124	0.515232	1.08226	-0.169538	1.0804	-2.05669	-1.42554	
0.62957	5.55267	0	5	-1.45687	-0.839397	-2.17333	-0.508651	-2.29261	-1.98982	-1.15617	-1.21363	2.15683	-1.38499	0.560125	-1.01814	0.914093	-0.580867	-0.147133	-1.0189	-2.21993	1.45154	-0.564411	-0.900062	-2.33385	-0.588039	-1.4424	-1.6749	-0.93613	-0.695214	0.516584	1.08796	-0.170758	1.08385	-2.04258	-1.42999	
0.628896	5.54962	0	5	-1.45972	-0.841831	-2.17879	-0.51178	-2.29849	-1.9981	-1.15836	-1.2189	2.15683	-1.38499	0.564088	-1.01834	0.913337	-0.57873	-0.146355	-1.0211	-2.22069	1.45367	-0.565169	-0.897918	-2.33157	-0.586217	-1.44203	-1.66733	-0.93613	-0.695214	0.518946	1.09081	-0.152751	1.07474	-2.05073	-1.42467	
0.628828	5.54962	0	5	-1.46257	-0.844264	-2.18424	-0.51491	-2.30438	-2.00638	-1.16056	-1.22417	2.15683	-1.38499	0.568052	-1.01855	0.912581	-0.576593	-0.145576	-1.0233	-2.22144	1.45581	-0.565928	-0.895774	-2.3293	-0.584396	-1.44165	-1.65975	-0.93613	-0.695214	0.521309	1.09365	-0.134743	1.06562	-2.05889	-1.41934	
0.628972	5.55115	0	5	-1.46542	-0.846698	-2.1897	-0.518039	-2.31027	-2.01466	-1.16275	-1.22943	2.15683	-1.38499	0.572016	-1.01876	0.911825	-0.574457	-0.144798	-1.0255	-2.2222	1.45794	-0.566686	-0.89363	-2.32702	-0.582574	-1.44127	-1.65218	-0.93613	-0.695214	0.523672	1.0965	-0.116736	1.05651	-2.06704	-1.41401	
0.628952	5.54962	0	5	-1.46827	-0.849132	-2.19516	-0.521169	-2.31615	-2.02294	-1.16494	-1.2347	2.15683	-1.38499	0.575979	-1.01897	0.911069	-0.57232	-0.14402	-1.0277	-2.22296	1.46008	-0.567445	-0.891486	-2.32475	-0.580752	-1.44089	-1.6446	-0.93613	-0.695214	0.526034	1.09935	-0.098729	1.0474	-2.07519	-1.40868	
0.62869	5.54352	0	5	-1.47397	-0.853994	-2.19532	-0.52998	-2.31584	-2.04043	-1.16405	-1.24867	2.14796	-1.37755	0.573524	-1.03401	0.90466	-0.566489	-0.148845	-1.03469	-2.23813	1.47164	-0.581377	-0.885679	-2.33992	-0.570838	-1.44652	-1.65461	-0.939333	-0.697388	0.523672	1.0965	-0.106364	1.05504	-2.08114	-1.40956	
0.628332	5.54504	0	5	-1.47967	-0.858857	-2.19548	-0.53879	-2.31552	-2.05793	-1.16317	-1.26263	2.1391	-1.37011	0.57107	-1.04905	0.898251	-0.560658	-0.15367	-1.04167	-2.25331	1.4832	-0.595309	-0.879872	-2.3551	-0.560924	-1.45216	-1.66461	-0.942535	-0.699561	0.521309	1.09365	-0.114	1.06268	-2.0871	-1.41043	
0.628031	5.54809	0	5	-1.48537	-0.863719	-2.19564	-0.547601	-2.3152	-2.07542	-1.16228	-1.27659	2.13023	-1.36268	0.568616	-1.0641	0.891842	-0.554828	-0.158495	-1.04866	-2.26848	1.49475	-0.60924	-0.874065	-2.37027	-0.55101	-1.45779	-1.67461	-0.945738	-0.701734	0.518946	1.09081	-0.121635	1.07032	-2.09305	-1.4113	
0.627939	5.54047	0	5	-1.49106	-0.868581	-2.19581	-0.556412	-2.31488	-2.09291	-1.1614	-1.29055	2.12137	-1.35524	0.566161	-1.07914	0.885433	-0.548997	-0.16332	-1.05564	-2.28366	1.50631	-0.623172	-0.868258	-2.38544	-0.541096	-1.46342	-1.68461	-0.94894	-0.703908	0.516584	1.08796	-0.12927	1.07797	-2.099	-1.41218	
0.628198	5.53589	0	5	-1.48613	-0.88252	-2.19068	-0.570889	-2.31982	-2.11209	-1.15847	-1.31027	2.10981	-1.34604	0.565477	-1.08818	0.878271	-0.541029	-0.168141	-1.06262	-2.30093	1.5176	-0.634752	-0.862339	-2.3968	-0.533672	-1.47033	-1.6996	-0.95462	-0.721486	0.506798	1.06806	-0.128676	1.04845	-2.10433	-1.43246	
0.628784	5.53436	0	5	-1.4812	-0.896459	-2.18556	-0.585365	-2.32476	-2.13127	-1.15555	-1.32998	2.09825	-1.33685	0.564793	-1.09723	0.871109	-0.533062	-0.172963	-1.06959	-2.3182	1.52888	-0.646333	-0.856419	-2.40816	-0.526248	-1.47724	-1.71458	-0.9603	-0.739063	0.497013	1.04817	-0.128082	1.01893	-2.10966	-1.45274	
0.629532	5.53589	0	5	-1.47627	-0.910398	-2.18044	-0.599842	-2.3297	-2.15045	-1.15262	-1.3497	2.08669	-1.32765	0.56411	-1.10627	0.863946	-0.525095	-0.177784	-1.07656	-2.33547	1.54017	-0.657914	-0.850499	-2.41953	-0.518824	-1.48415	-1.72957	-0.96598	-0.756641	0.487227	1.02827	-0.127488	0.989408	-2.11499	-1.47303	
0.630273	5.53131	0	5	-1.47133	-0.924337	-2.17532	-0.614318	-2.33464	-2.16962	-1.1497	-1.36941	2.07514	-1.31845	0.563426	-1.11532	0.856784	-0.517127	-0.182606	-1.08354	-2.35274	1.55146	-0.669494	-0.84458	-2.43089	-0.5114	-1.49105	-1.74455	-0.97166	-0.774219	0.477441	1.00838	-0.126894	0.959888	-2.12032	-1.49331	
0.630841	5.52215	0	5	-1.47703	-0.929175	-2.17651	-0.620206	-2.33895	-2.18228	-1.1383	-1.39019	2.06435	-1.3114	0.569968	-1.13381	0.851139	-0.513438	-0.184268	-1.09256	-2.36711	1.56084	-0.67106	-0.84685	-2.43769	-0.508607	-1.49272	-1.75708	-0.972195	-0.795093	0.474384	0.988545	-0.136363	0.944966	-2.12565	-1.51351	
0.631063	5.52368	0	5	-1.48273	-0.934013	-2.17771	-0.626095	-2.34325	-2.19494	-1.1269	-1.41096	2.05356	-1.30436	0.576511	-1.1523	0.845494	-0.50975	-0.18593	-1.10158	-2.38148	1.57023	-0.672626	-0.84912	-2.4445	-0.505815	-1.49438	-1.76961	-0.97273	-0.815967	0.471328	0.968712	-0.145833	0.930044	-2.13099	-1.53371	
0.630706	5.52978	0	5	-1.48842	-0.938851	-2.1789	-0.631984	-2.34755	-2.2076	-1.11549	-1.43173	2.04278	-1.29731	0.583054	-1.17079	0.839848	-0.506061	-0.187593	-1.11061	-2.39584	1.57962	-0.674192	-0.851391	-2.4513	-0.503022	-1.49604	-1.78214	-0.973266	-0.83684	0.468271	0.948878	-0.155303	0.915123	-2.13632	-1.5539	
0.629478	5.52826	0	5	-1.49412	-0.943689	-2.1801	-0.637872	-2.35185	-2.22026	-1.10409	-1.45251	2.03199	-1.29026	0.589596	-1.18928	0.834203	-0.502372	-0.189255	-1.11963	-2.41021	1.589	-0.675758	-0.853661	-2.45811	-0.500229	-1.49771	-1.79468	-0.973801	-0.857714	0.465214	0.929045	-0.164772	0.900201	-2.14166	-1.5741	
0.627085	5.53436	0	5	-1.49795	-0.943325	-2.18129	-0.643754	-2.3639	-2.21925	-1.10103	-1.46116	2.02585	-1.2846	0.590685	-1.19236	0.837025	-0.504216	-0.194016	-1.11989	-2.41882	1.59463	-0.675758	-0.853661	-2.46265	-0.495608	-1.50077	-1.79461	-0.974075	-0.868122	0.463858	0.923395	-0.161136	0.889926	-2.14759	-1.57495	
0.623233	5.54047	0	5	-1.50178	-0.94296	-2.18249	-0.649636	-2.37595	-2.21824	-1.09797	-1.46981	2.0197	-1.27894	0.591774	-1.19544	0.839848	-0.506061	-0.198777	-1.12014	-2.42743	1.60025	-0.675758	-0.853661	-2.46719	-0.490986	-1.50384	-1.79455	-0.974349	-0.878529	0.462503	0.917745	-0.1575	0.879651	-2.15352	-1.5758	
0.61766	5.55115	0	5	-1.50561	-0.942596	-2.18368	-0.655517	-2.38799	-2.21723	-1.09491	-1.47846	2.01356	-1.27328	0.592863	-1.19851	0.84267	-0.507905	-0.203537	-1.1204	-2.43603	1.60588	-0.675758	-0.853661	-2.47173	-0.486364	-1.50691	-1.79449	-0.974624	-0.888937	0.461147	0.912095	-0.153865	0.869376	-2.15945	-1.57665	
0.610658	5.5603	0	5	-1.50944	-0.942232	-2.18488	-0.661399	-2.40004	-2.21623	-1.09184	-1.48712	2.00741	-1.26761	0.593952	-1.20159	0.845492	-0.509749	-0.208298	-1.12065	-2.44464	1.6115	-0.675758	-0.853661	-2.47627	-0.481743	-1.50998	-1.79443	-0.974898	-0.899345	0.459791	0.906445	-0.150229	0.859101	-2.16538	-1.57751	
0.602997	5.56183	0	5	-1.51307	-0.963346	-2.18505	-0.670157	-2.40719	-2.23723	-1.08573	-1.5044	1.99127	-1.25707	0.586032	-1.20115	0.824999	-0.494714	-0.215432	-1.12104	-2.44675	1.61124	-0.678081	-0.853789	-2.48307	-0.478957	-1.51611	-1.79431	-0.970033	-0.913095	0.458435	0.900802	-0.152983	0.853011	-2.16913	-1.5845	
0.595461	5.57098	0	5	-1.51669	-0.98446	-2.18523	-0.678916	-2.41434	-2.25824	-1.07962	-1.52168	1.97512	-1.24652	0.578112	-1.2007	0.804507	-0.47968	-0.222566	-1.12142	-2.44887	1.61098	-0.680404	-0.853917	-2.48986	-0.476171	-1.52224	-1.79418	-0.965167	-0.926845	0.457078	0.895158	-0.155737	0.84692	-2.17289	-1.59149	
0.588834	5.58014	0	5	-1.52031	-1.00557	-2.1854	-0.687674	-2.42149	-2.27925	-1.0735	-1.53895	1.95898	-1.23597	0.570192	-1.20026	0.784014	-0.464645	-0.2297	-1.12181	-2.45098	1.61072	-0.682728	-0.854046	-2.49666	-0.473385	-1.52837	-1.79406	-0.960302	-0.940595	0.455722	0.889515	-0.158491	0.84083	-2.17664	-1.59848	
0.583785	5.58319	0	5	-1.52393	-1.02669	-2.18558	-0.696433	-2.42864	-2.30025	-1.06739	-1.55623	1.94283	-1.22542	0.562272	-1.19981	0.763521	-0.44961	-0.236834	-1.12219	-2.45309	1.61045	-0.685051	-0.854174	-2.50346	-0.470599	-1.5345	-1.79394	-0.955437	-0.954345	0.454366	0.883872	-0.161245	0.834739	-2.18039	-1.60548	
0.580273	5.58472	0	5	-1.52658	-1.05048	-2.18474	-0.708058	-2.43123	-2.32585	-1.06129	-1.57348	1.92748	-1.21703	0.559095	-1.22369	0.745344	-0.441021	-0.243298	-1.13812	-2.47524	1.62328	-0.698924	-0.848401	-2.52156	-0.460425	-1.54356	-1.81128	-0.959893	-0.964097	0.450652	0.87543	-0.161582	0.821829	-2.19813	-1.60803	
0.577989	5.58624	0	5	-1.52924	-1.07426	-2.1839	-0.719682	-2.43382	-2.35144	-1.05518	-1.59073	1.91212	-1.20864	0.555919	-1.24757	0.727167	-0.432431	-0.249762	-1.15404	-2.49739	1.63612	-0.712797	-0.842627	-2.53966	-0.450252	-1.55262	-1.82862	-0.96435	-0.973849	0.446939	0.866988	-0.16192	0.80892	-2.21587	-1.61057	
0.576618	5.59234	0	5	-1.5319	-1.09805	-2.18306	-0.731306	-2.43641	-2.37704	-1.04908	-1.60797	1.89677	-1.20025	0.552743	-1.27146	0.708989	-0.423842	-0.256227	-1.16997	-2.51954	1.64895	-0.726669	-0.836854	-2.55776	-0.440078	-1.56168	-1.84596	-0.968807	-0.9836	0.443225	0.858546	-0.162257	0.79601	-2.23361	-1.61312	
0.575849	5.58472	0	5	-1.53455	-1.12184	-2.18222	-0.742931	-2.43899	-2.40263	-1.04298	-1.62522	1.88141	-1.19187	0.549566	-1.29534	0.690812	-0.415253	-0.262691	-1.18589	-2.54169	1.66178	-0.740542	-0.831081	-2.57586	-0.429904	-1.57074	-1.8633	-0.973263	-0.993352	0.439511	0.850104	-0.162595	0.7831	-2.25136	-1.61567	
0.575432	5.58472	0	5	-1.53528	-1.15102	-2.17935	-0.760281	-2.44382	-2.43005	-1.03385	-1.65102	1.86608	-1.1835	0.55356	-1.3285	0.666318	-0.400892	-0.268384	-1.20393	-2.56093	1.67271	-0.757457	-0.823318	-2.59767	-0.417301	-1.57575	-1.90055	-0.982171	-1.01279	0.426384	0.830503	-0.18392	0.760402	-2.25235	-1.64791	
0.575238	5.58319	0	5	-1.53601	-1.1802	-2.17648	-0.777631	-2.44865	-2.45746	-1.02472	-1.67683	1.85076	-1.17513	0.557554	-1.36166	0.641825	-0.38653	-0.274077	-1.22198	-2.58016	1.68364	-0.774371	-0.815555	-2.61949	-0.404697	-1.58076	-1.93779	-0.99108	-1.03222	0.413257	0.810901	-0.205245	0.737705	-2.25334	-1.68014	
0.575151	5.58472	0	5	-1.53674	-1.20938	-2.17362	-0.79498	-2.45347	-2.48488	-1.01558	-1.70264	1.83543	-1.16676	0.561547	-1.39482	0.617331	-0.372169	-0.279771	-1.24002	-2.5994	1.69456	-0.791286	-0.807793	-2.64131	-0.392093	-1.58578	-1.97503	-0.999988	-1.05166	0.400131	0.7913	-0.22657	0.715008	-2.25434	-1.71238	
0.575057	5.57556	0	5	-1.53747	-1.23856	-2.17075	-0.81233	-2.4583	-2.51229	-1.00645	-1.72845	1.8201	-1.15839	0.565541	-1.42798	0.592837	-0.357808	-0.285464	-1.25806	-2.61864	1.70549	-0.808201	-0.80003	-2.66313	-0.37949	-1.59079	-2.01228	-1.0089	-1.0711	0.387004	0.771699	-0.247895	0.69231	-2.25533	-1.74461	
0.574862	5.56946	0	5	-1.53823	-1.2676	-2.17538	-0.826947	-2.46769	-2.5349	-1.00464	-1.74502	1.80213	-1.14829	0.562311	-1.45162	0.568417	-0.343495	-0.297424	-1.27194	-2.63934	1.72066	-0.831954	-0.786153	-2.6819	-0.367225	-1.60065	-2.0442	-1.01491	-1.09861	0.381208	0.740963	-0.256848	0.648756	-2.26655	-1.76534	
0.574767	5.57403	0	5	-1.539	-1.29663	-2.18001	-0.841564	-2.47708	-2.55751	-1.00283	-1.7616	1.78417	-1.1382	0.559082	-1.47525	0.543997	-0.329182	-0.309385	-1.28581	-2.66004	1.73583	-0.855707	-0.772277	-2.70067	-0.35496	-1.61051	-2.07612	-1.02092	-1.12612	0.375411	0.710228	-0.265801	0.605203	-2.27777	-1.78607	
0.575167	5.56946	0	5	-1.53976	-1.32566	-2.18465	-0.856181	-2.48646	-2.58012	-1.00101	-1.77818	1.7662	-1.1281	0.555852	-1.49889	0.519577	-0.314868	-0.321346	-1.29969	-2.68074	1.751	-0.879461	-0.758401	-2.71944	-0.342695	-1.62037	-2.10805	-1.02693	-1.15364	0.369614	0.679493	-0.274754	0.56165	-2.28899	-1.8068	
0.576462	5.5664	0	5	-1.54052	-1.35469	-2.18928	-0.870798	-2.49585	-2.60273	-0.999199	-1.79475	1.74823	-1.118	0.552622	-1.52252	0.495157	-0.300555	-0.333306	-1.31357	-2.70144	1.76616	-0.903214	-0.744524	-2.73821	-0.33043	-1.63023	-2.13997	-1.03295	-1.18115	0.363818	0.648757	-0.283707	0.518096	-2.30022	-1.82753	
0.579054	5.56183	0	5	-1.54615	-1.36993	-2.18644	-0.888056	-2.5038	-2.62112	-0.997398	-1.81129	1.72879	-1.10365	0.556191	-1.54352	0.472084	-0.283836	-0.345177	-1.32079	-2.71206	1.77146	-0.920794	-0.73468	-2.75244	-0.322787	-1.63362	-2.16449	-1.03867	-1.19829	0.360723	0.62929	-0.293512	0.490904	-2.31142	-1.84816	
0.58317	5.56183	0	5	-1.55177	-1.38517	-2.1836	-0.905315	-2.51175	-2.63951	-0.995597	-1.82782	1.70934	-1.0893	0.55976	-1.56451	0.449011	-0.267116	-0.357048	-1.32801	-2.72269	1.77676	-0.938375	-0.724837	-2.76666	-0.315144	-1.637	-2.18901	-1.04439	-1.21544	0.357628	0.609823	-0.303317	0.463712	-2.32263	-1.86878	
0.588387	5.55878	0	5	-1.5574	-1.40041	-2.18075	-0.922573	-2.5197	-2.65789	-0.993797	-1.84435	1.6899	-1.07496	0.56333	-1.58551	0.425938	-0.250397	-0.36892	-1.33523	-2.73331	1.78206	-0.955955	-0.714994	-2.78089	-0.307501	-1.64038	-2.21353	-1.05011	-1.23258	0.354533	0.590356	-0.313122	0.43652	-2.33383	-1.88941	
0.594126	5.5542	0	5	-1.56302	-1.41566	-2.17791	-0.939831	-2.52765	-2.67628	-0.991996	-1.86089	1.67046	-1.06061	0.566899	-1.60651	0.402865	-0.233677	-0.380791	-1.34245	-2.74393	1.78736	-0.973535	-0.70515	-2.79512	-0.299858	-1.64377	-2.23805	-1.05583	-1.24972	0.351438	0.570889	-0.322927	0.409328	-2.34504	-1.91003	
0.599808	5.55267	0	5	-1.56297	-1.42618	-2.18337	-0.942857	-2.53648	-2.68395	-0.988972	-1.86944	1.66513	-1.05712	0.575135	-1.61887	0.394511	-0.228218	-0.387927	-1.34942	-2.74961	1.79107	-0.981932	-0.701307	-2.7981	-0.299562	-1.64634	-2.24779	-1.06028	-1.25931	0.344392	0.562632	-0.32449	0.400044	-2.34877	-1.91689	
0.604855	5.55115	0	5	-1.56291	-1.4367	-2.18882	-0.945883	-2.54531	-2.69162	-0.985947	-1.87798	1.6598	-1.05364	0.583371	-1.63124	0.386157	-0.222759	-0.395062	-1.35638	-2.75529	1.79479	-0.990329	-0.697463	-2.80108	-0.299265	-1.64892	-2.25753	-1.06473	-1.2689	0.337345	0.554375	-0.326053	0.39076	-2.3525	-1.92374	
0.608873	5.54962	0	5	-1.56286	-1.44722	-2.19428	-0.948909	-2.55413	-2.69929	-0.982923	-1.88653	1.65447	-1.05016	0.591606	-1.64361	0.377803	-0.217301	-0.402198	-1.36335	-2.76098	1.7985	-0.998727	-0.693619	-2.80406	-0.298968	-1.65149	-2.26727	-1.06919	-1.27849	0.330299	0.546118	-0.327615	0.381476	-2.35623	-1.93059	
0.611905	5.54962	0	5	-1.5628	-1.45775	-2.19973	-0.951935	-2.56296	-2.70697	-0.979898	-1.89508	1.64914	-1.04667	0.599842	-1.65597	0.369449	-0.211842	-0.409334	-1.37031	-2.76666	1.80221	-1.00712	-0.689776	-2.80704	-0.298672	-1.65406	-2.27701	-1.07364	-1.28808	0.323253	0.537861	-0.329178	0.372192	-2.35997	-1.93744	
0.614055	5.54504	0	0	-1.57138	-1.45424	-2.20397	-0.949164	-2.57783	-2.70564	-0.974631	-1.89852	1.64381	-1.04319	0.614593	-1.65396	0.367423	-0.212161	-0.41328	-1.37271	-2.76382	1.80036	-1.00942	-0.689921	-2.81154	-0.294079	-1.65406	-2.27701	-1.07364	-1.28808	0.326587	0.537825	-0.331549	0.378892	-2.36583	-1.93825	
0.615425	5.54962	0	0	-1.57995	-1.45074	-2.20821	-0.946393	-2.5927	-2.70431	-0.969364	-1.90196	1.63848	-1.03971	0.629344	-1.65196	0.365396	-0.21248	-0.417227	-1.37511	-2.76098	1.7985	-1.01171	-0.690066	-2.81605	-0.289485	-1.65406	-2.27701	-1.07364	-1.28808	0.329921	0.537788	-0.333919	0.385591	-2.37169	-1.93906	
0.616119	5.55267	0	0	-1.58852	-1.44723	-2.21245	-0.943622	-2.60757	-2.70298	-0.964096	-1.9054	1.63315	-1.03623	0.644094	-1.64995	0.36337	-0.212799	-0.421173	-1.37751	-2.75814	1.79664	-1.014	-0.690211	-2.82055	-0.284891	-1.65406	-2.27701	-1.07364	-1.28808	0.333255	0.537752	-0.33629	0.39229	-2.37756	-1.93987	
0.61625	5.5542	0	0	-1.59709	-1.44373	-2.21669	-0.940851	-2.62244	-2.70165	-0.958829	-1.90884	1.62782	-1.03275	0.658845	-1.64794	0.361343	-0.213118	-0.425119	-1.37991	-2.75529	1.79479	-1.0163	-0.690356	-2.82505	-0.280298	-1.65406	-2.27701	-1.07364	-1.28808	0.336589	0.537715	-0.33866	0.39899	-2.38342	-1.94068	
0.615945	5.5603	0	0	-1.60367	-1.45617	-2.22214	-0.943877	-2.62892	-2.71583	-0.959062	-1.91963	1.62326	-1.03141	0.664624	-1.64238	0.353	-0.207667	-0.429825	-1.38015	-2.75245	1.79293	-1.0163	-0.690356	-2.82505	-0.280298	-1.65453	-2.26719	-1.06854	-1.29141	0.33363	0.546078	-0.322102	0.393325	-2.38342	-1.94068	
0.615334	5.56793	0	0	-1.61025	-1.46861	-2.22758	-0.946904	-2.6354	-2.73001	-0.959295	-1.93042	1.61869	-1.03007	0.670402	-1.63683	0.344657	-0.202215	-0.434531	-1.38039	-2.74961	1.79107	-1.0163	-0.690356	-2.82505	-0.280298	-1.655	-2.25737	-1.06344	-1.29475	0.33067	0.554442	-0.305543	0.38766	-2.38342	-1.94068	
0.614549	5.57251	0	0	-1.61682	-1.48105	-2.23303	-0.94993	-2.64188	-2.74419	-0.959528	-1.9412	1.61412	-1.02873	0.67618	-1.63127	0.336314	-0.196764	-0.439237	-1.38063	-2.74677	1.78922	-1.0163	-0.690356	-2.82505	-0.280298	-1.65546	-2.24755	-1.05834	-1.29808	0.327711	0.562805	-0.288985	0.381995	-2.38342	-1.94068	
0.613716	5.57403	0	0	-1.6234	-1.4935	-2.23847	-0.952956	-2.64836	-2.75837	-0.959761	-1.95199	1.60955	-1.02739	0.681959	-1.62572	0.327971	-0.191312	-0.443943	-1.38087	-2.74393	1.78736	-1.0163	-0.690356	-2.82505	-0.280298	-1.65593	-2.23772	-1.05323	-1.30141	0.324752	0.571168	-0.272427	0.37633	-2.38342	-1.94068	
0.61293	5.58472	0	0	-1.62239	-1.50668	-2.23424	-0.955724	-2.64891	-2.77304	-0.947212	-1.96456	1.60955	-1.02739	0.680885	-1.62268	0.325948	-0.191633	-0.443943	-1.38087	-2.75321	1.79506	-1.01934	-0.688365	-2.83253	-0.275413	-1.66025	-2.24251	-1.05834	-1.29808	0.319445	0.57678	-0.282304	0.390523	-2.38984	-1.92256	
0.612224	5.58929	0	0	-1.62138	-1.51987	-2.23	-0.958492	-2.64946	-2.7877	-0.934662	-1.97713	1.60955	-1.02739	0.67981	-1.61964	0.323925	-0.191953	-0.443943	-1.38087	-2.76248	1.80277	-1.02239	-0.686373	-2.84	-0.270527	-1.66457	-2.2473	-1.06344	-1.29475	0.314138	0.582392	-0.29218	0.404716	-2.39625	-1.90443	
0.611629	5.58929	0	0	-1.62037	-1.53306	-2.22576	-0.96126	-2.65001	-2.80237	-0.922113	-1.9897	1.60955	-1.02739	0.678735	-1.6166	0.321901	-0.192274	-0.443943	-1.38087	-2.77176	1.81047	-1.02544	-0.684381	-2.84748	-0.265641	-1.6689	-2.2521	-1.06854	-1.29141	0.308832	0.588004	-0.302057	0.418908	-2.40266	-1.88631	
0.611176	5.59082	0	0	-1.61936	-1.54625	-2.22153	-0.964028	-2.65056	-2.81704	-0.909564	-2.00227	1.60955	-1.02739	0.677661	-1.61357	0.319878	-0.192595	-0.443943	-1.38087	-2.78104	1.81818	-1.02849	-0.68239	-2.85496	-0.260756	-1.67322	-2.25689	-1.07364	-1.28808	0.303525	0.593616	-0.311934	0.433101	-2.40907	-1.86819	
0.610892	5.59692	0	0	-1.61648	-1.55439	-2.22153	-0.964028	-2.65342	-2.82518	-0.897003	-2.01484	1.61222	-1.02913	0.682702	-1.61686	0.327462	-0.195908	-0.437711	-1.38494	-2.78747	1.82402	-1.02924	-0.680253	-2.86395	-0.251575	-1.67929	-2.25672	-1.08127	-1.29972	0.299824	0.585318	-0.312692	0.407834	-2.40852	-1.88712	
0.610724	5.5954	0	0	-1.6136	-1.56253	-2.22153	-0.964028	-2.65627	-2.83331	-0.884443	-2.02742	1.61488	-1.03087	0.687743	-1.62016	0.335047	-0.199221	-0.431478	-1.38901	-2.79391	1.82987	-1.03	-0.678116	-2.87294	-0.242393	-1.68536	-2.25656	-1.0889	-1.31136	0.296123	0.57702	-0.313451	0.382567	-2.40796	-1.90605	
0.610525	5.59387	0	0	-1.61072	-1.57066	-2.22153	-0.964028	-2.65913	-2.84145	-0.871882	-2.03999	1.61754	-1.03261	0.692784	-1.62345	0.342631	-0.202534	-0.425246	-1.39309	-2.80034	1.83571	-1.03076	-0.675978	-2.88193	-0.233212	-1.69143	-2.2564	-1.09653	-1.32301	0.292423	0.568723	-0.31421	0.357299	-2.40741	-1.92498	
0.610144	5.58929	0	0	-1.60784	-1.5788	-2.22153	-0.964028	-2.66199	-2.84958	-0.859321	-2.05257	1.6202	-1.03435	0.697825	-1.62674	0.350215	-0.205847	-0.419014	-1.39716	-2.80677	1.84156	-1.03151	-0.673841	-2.89093	-0.224031	-1.6975	-2.25624	-1.10417	-1.33465	0.288722	0.560425	-0.314968	0.332032	-2.40686	-1.94391	
0.609431	5.59082	0	5	-1.60972	-1.58382	-2.22254	-0.961175	-2.66638	-2.85337	-0.854041	-2.05602	1.61678	-1.03047	0.69675	-1.62371	0.35578	-0.209483	-0.419014	-1.39716	-2.80885	1.84128	-1.02846	-0.675833	-2.89093	-0.224031	-1.69791	-2.26358	-1.10162	-1.3529	0.288956	0.541025	-0.315752	0.306878	-2.41058	-1.95075	
0.608244	5.58777	0	5	-1.6116	-1.58885	-2.22355	-0.958321	-2.67077	-2.85716	-0.848761	-2.05947	1.61336	-1.02659	0.695675	-1.62067	0.361345	-0.213119	-0.419014	-1.39716	-2.81093	1.84099	-1.02542	-0.677824	-2.89093	-0.224031	-1.69832	-2.27091	-1.09907	-1.37115	0.28919	0.521625	-0.316536	0.281724	-2.4143	-1.95758	
0.606602	5.58166	0	5	-1.61347	-1.59387	-2.22456	-0.955467	-2.67516	-2.86095	-0.84348	-2.06292	1.60994	-1.02271	0.6946	-1.61763	0.366909	-0.216755	-0.419014	-1.39716	-2.81302	1.84071	-1.02237	-0.679816	-2.89093	-0.224031	-1.69873	-2.27825	-1.09653	-1.38941	0.289424	0.502225	-0.317321	0.256569	-2.41802	-1.96442	
0.604654	5.57709	0	5	-1.61535	-1.5989	-2.22557	-0.952614	-2.67955	-2.86475	-0.8382	-2.06637	1.60653	-1.01883	0.693525	-1.61459	0.372474	-0.220391	-0.419014	-1.39716	-2.8151	1.84043	-1.01932	-0.681807	-2.89093	-0.224031	-1.69914	-2.28558	-1.09398	-1.40766	0.289658	0.482825	-0.318105	0.231415	-2.42174	-1.97125	
0.60255	5.58319	0	5	-1.62102	-1.60352	-2.22456	-0.955467	-2.68689	-2.86826	-0.830907	-2.0755	1.60196	-1.01749	0.700719	-1.62396	0.375258	-0.22221	-0.417488	-1.40147	-2.82077	1.84414	-1.01627	-0.683799	-2.89466	-0.221592	-1.69739	-2.29053	-1.09939	-1.41448	0.291241	0.468989	-0.322441	0.216339	-2.42546	-1.97807	
0.600441	5.57556	0	5	-1.62668	-1.60814	-2.22355	-0.958321	-2.69423	-2.87178	-0.823615	-2.08463	1.5974	-1.01616	0.707912	-1.63333	0.378042	-0.224029	-0.415963	-1.40578	-2.82644	1.84784	-1.01322	-0.685791	-2.89839	-0.219153	-1.69564	-2.29547	-1.10479	-1.42129	0.292824	0.455153	-0.326777	0.201263	-2.42918	-1.9849	
0.598466	5.56946	0	5	-1.63235	-1.61276	-2.22254	-0.961175	-2.70157	-2.8753	-0.816323	-2.09376	1.59283	-1.01482	0.715106	-1.6427	0.380825	-0.225848	-0.414438	-1.41009	-2.83211	1.85155	-1.01017	-0.687784	-2.90212	-0.216713	-1.69389	-2.30041	-1.1102	-1.42811	0.294407	0.441318	-0.331112	0.186186	-2.4329	-1.99172	
0.596651	5.5664	0	5	-1.63802	-1.61738	-2.22153	-0.964028	-2.70892	-2.87881	-0.80903	-2.10289	1.58827	-1.01348	0.7223	-1.65208	0.383609	-0.227667	-0.412912	-1.4144	-2.83778	1.85525	-1.00712	-0.689776	-2.90586	-0.214274	-1.69214	-2.30535	-1.11561	-1.43492	0.29599	0.427482	-0.335448	0.17111	-2.43662	-1.99854	
0.594972	5.5664	0	5	-1.64173	-1.6378	-2.22495	-0.972748	-2.71767	-2.88638	-0.806291	-2.12211	1.57157	-1.00092	0.715437	-1.65459	0.369699	-0.218578	-0.423085	-1.41273	-2.84628	1.86081	-1.00942	-0.689921	-2.91256	-0.211549	-1.69343	-2.3102	-1.11498	-1.44773	0.29228	0.419256	-0.334682	0.155296	-2.43609	-2.01736	
0.593407	5.5664	0	5	-1.64545	-1.65821	-2.22838	-0.981467	-2.72643	-2.89394	-0.803551	-2.14133	1.55487	-0.988367	0.708573	-1.65711	0.35579	-0.209489	-0.433258	-1.41105	-2.85478	1.86636	-1.01171	-0.690066	-2.91926	-0.208824	-1.69472	-2.31506	-1.11436	-1.46053	0.28857	0.411031	-0.333917	0.139481	-2.43556	-2.03617	
0.591931	5.55878	0	5	-1.64917	-1.67862	-2.23181	-0.990187	-2.73518	-2.9015	-0.800812	-2.16055	1.53817	-0.975809	0.701709	-1.65962	0.341881	-0.200401	-0.443432	-1.40937	-2.86328	1.87192	-1.014	-0.690211	-2.92596	-0.2061	-1.696	-2.31991	-1.11373	-1.47334	0.284861	0.402805	-0.333151	0.123667	-2.43503	-2.05499	
0.590513	5.55267	0	5	-1.65288	-1.69904	-2.23523	-0.998907	-2.74394	-2.90906	-0.798073	-2.17977	1.52147	-0.963252	0.694846	-1.66214	0.327971	-0.191312	-0.453605	-1.40769	-2.87179	1.87747	-1.0163	-0.690356	-2.93266	-0.203375	-1.69729	-2.32476	-1.1131	-1.48614	0.281151	0.39458	-0.332385	0.107852	-2.4345	-2.0738	
0.589103	5.54962	0	5	-1.65944	-1.72165	-2.2302	-1.01314	-2.75344	-2.91445	-0.79107	-2.19957	1.50555	-0.952853	0.686496	-1.68229	0.311309	-0.180425	-0.465347	-1.40829	-2.88593	1.88671	-1.02544	-0.684383	-2.94756	-0.193637	-1.70376	-2.33191	-1.10836	-1.49956	0.275486	0.3919	-0.333973	0.098699	-2.43822	-2.08059	
0.587641	5.54809	0	5	-1.66599	-1.74426	-2.22516	-1.02737	-2.76295	-2.91985	-0.784066	-2.21936	1.48964	-0.942454	0.678146	-1.70244	0.294648	-0.169538	-0.477089	-1.40889	-2.90008	1.89596	-1.03458	-0.678411	-2.96246	-0.1839	-1.71023	-2.33905	-1.10361	-1.51297	0.269821	0.38922	-0.33556	0.089546	-2.44194	-2.08737	
0.586073	5.54047	0	5	-1.67255	-1.76687	-2.22013	-1.0416	-2.77245	-2.92524	-0.777063	-2.23915	1.47372	-0.932056	0.669796	-1.72259	0.277986	-0.15865	-0.48883	-1.40949	-2.91423	1.9052	-1.04372	-0.672438	-2.97736	-0.174162	-1.71671	-2.34619	-1.09886	-1.52639	0.264155	0.38654	-0.337148	0.080393	-2.44567	-2.09415	
0.584341	5.53589	0	5	-1.6791	-1.78949	-2.21509	-1.05584	-2.78196	-2.93063	-0.77006	-2.25894	1.45781	-0.921657	0.661446	-1.74273	0.261324	-0.147763	-0.500572	-1.41009	-2.92838	1.91445	-1.05286	-0.666465	-2.99227	-0.164425	-1.72318	-2.35334	-1.09412	-1.53981	0.25849	0.38386	-0.338736	0.07124	-2.44939	-2.10094	
0.582468	5.53894	0	5	-1.68001	-1.80745	-2.21308	-1.06152	-2.79003	-2.93198	-0.771345	-2.26678	1.43928	-0.90955	0.658117	-1.76607	0.24117	-0.132951	-0.509949	-1.41058	-2.94533	1.92552	-1.06807	-0.656525	-3.00714	-0.154704	-1.72919	-2.37021	-1.10555	-1.54058	0.252831	0.381182	-0.352859	0.070293	-2.469	-2.09733	
0.580581	5.53589	0	5	-1.68092	-1.82542	-2.21107	-1.06721	-2.7981	-2.93332	-0.77263	-2.27462	1.42075	-0.897442	0.654788	-1.78941	0.221016	-0.118139	-0.519325	-1.41106	-2.96227	1.9366	-1.08328	-0.646585	-3.02202	-0.144984	-1.73521	-2.38708	-1.11698	-1.54135	0.247171	0.378504	-0.366982	0.069346	-2.48861	-2.09372	
0.578819	5.52826	0	5	-1.68183	-1.84338	-2.20906	-1.07289	-2.80616	-2.93467	-0.773916	-2.28246	1.40222	-0.885334	0.651459	-1.81274	0.200862	-0.103327	-0.528701	-1.41154	-2.97922	1.94767	-1.0985	-0.636644	-3.03689	-0.135263	-1.74122	-2.40396	-1.1284	-1.54212	0.241511	0.375826	-0.381105	0.068399	-2.50822	-2.09011	
0.577316	5.52521	0	5	-1.68274	-1.86135	-2.20704	-1.07858	-2.81423	-2.93602	-0.775201	-2.2903	1.38369	-0.873227	0.64813	-1.83608	0.180708	-0.088515	-0.538078	-1.41203	-2.99617	1.95874	-1.11371	-0.626704	-3.05177	-0.125543	-1.74723	-2.42083	-1.13983	-1.54289	0.235852	0.373148	-0.395228	0.067452	-2.52783	-2.0865	
0.576202	5.52673	0	5	-1.67611	-1.88008	-2.20704	-1.07858	-2.81859	-2.93979	-0.768923	-2.29657	1.37048	-0.864595	0.640535	-1.8473	0.164116	-0.0776735	-0.544341	-1.41454	-3.01308	1.9698	-1.12282	-0.620748	-3.06586	-0.117989	-1.74849	-2.44263	-1.13828	-1.5583	0.229814	0.362239	-0.39882	0.0368332	-2.52942	-2.09924	
0.575522	5.52063	0	5	-1.66949	-1.89881	-2.20704	-1.07858	-2.82295	-2.94355	-0.762645	-2.30284	1.35727	-0.855962	0.632941	-1.85852	0.147524	-0.066832	-0.550604	-1.41705	-3.02999	1.98085	-1.13194	-0.614792	-3.07995	-0.110435	-1.74975	-2.46443	-1.13672	-1.57372	0.223776	0.351331	-0.402413	0.0062145	-2.53101	-2.11198	
0.575279	5.5191	0	5	-1.66286	-1.91754	-2.20704	-1.07858	-2.82731	-2.94732	-0.756367	-2.30912	1.34406	-0.84733	0.625346	-1.86974	0.130932	-0.0559905	-0.556866	-1.41957	-3.04691	1.9919	-1.14105	-0.608836	-3.09404	-0.102881	-1.75101	-2.48623	-1.13516	-1.58913	0.217738	0.340422	-0.406005	-0.0244043	-2.5326	-2.12473	
0.575477	5.51605	0	5	-1.65623	-1.93627	-2.20704	-1.07858	-2.83167	-2.95109	-0.750089	-2.31539	1.33085	-0.838698	0.617751	-1.88096	0.11434	-0.045149	-0.563129	-1.42208	-3.06382	2.00295	-1.15017	-0.60288	-3.10813	-0.095327	-1.75227	-2.50803	-1.1336	-1.60455	0.2117	0.329514	-0.409597	-0.055023	-2.53419	-2.13747	
0.57612	5.51605	0	5	-1.65528	-1.94921	-2.20281	-1.08135	-2.83308	-2.95512	-0.749091	-2.31821	1.31766	-0.830079	0.632026	-1.89952	0.101294	-0.0382678	-0.573239	-1.42042	-3.07151	2.00633	-1.15624	-0.598913	-3.11555	-0.0904815	-1.75571	-2.51518	-1.13806	-1.61395	0.208002	0.32134	-0.416699	-0.0756335	-2.53578	-2.15018	
0.577172	5.51147	0	5	-1.65433	-1.96215	-2.19857	-1.08411	-2.8345	-2.95915	-0.748093	-2.32102	1.30447	-0.821461	0.646301	-1.91808	0.0882485	-0.0313865	-0.583349	-1.41877	-3.0792	2.00972	-1.16231	-0.594946	-3.12296	-0.085636	-1.75915	-2.52234	-1.14252	-1.62335	0.204303	0.313166	-0.423801	-0.096244	-2.53738	-2.16289	
0.578495	5.5069	0	5	-1.65339	-1.97508	-2.19434	-1.08688	-2.83592	-2.96318	-0.747096	-2.32384	1.29128	-0.812842	0.660576	-1.93664	0.0752027	-0.0245052	-0.593459	-1.41711	-3.08689	2.0131	-1.16838	-0.590979	-3.13038	-0.0807905	-1.7626	-2.52949	-1.14698	-1.63275	0.200605	0.304992	-0.430904	-0.116855	-2.53898	-2.1756	
0.579937	5.50995	0	5	-1.65244	-1.98802	-2.1901	-1.08965	-2.83734	-2.96721	-0.746098	-2.32666	1.27809	-0.804223	0.674851	-1.9552	0.062157	-0.017624	-0.603569	-1.41545	-3.09458	2.01648	-1.17445	-0.587012	-3.13779	-0.075945	-1.76604	-2.53664	-1.15144	-1.64215	0.196907	0.296818	-0.438006	-0.137465	-2.54057	-2.18831	
0.581343	5.50842	0	5	-1.65527	-1.99027	-2.19212	-1.08396	-2.83952	-2.96909	-0.735229	-2.32292	1.27018	-0.799058	0.687789	-1.95904	0.0531302	-0.0100825	-0.605904	-1.41558	-3.09252	2.01678	-1.17749	-0.58503	-3.1415	-0.073524	-1.76431	-2.54153	-1.1505	-1.64482	0.202166	0.291266	-0.44076	-0.143223	-2.53846	-2.19427	
0.582584	5.5069	0	5	-1.6581	-1.99252	-2.19413	-1.07828	-2.84169	-2.97097	-0.72436	-2.31918	1.26228	-0.793893	0.700727	-1.96288	0.0441035	-0.002541	-0.60824	-1.4157	-3.09046	2.01707	-1.18052	-0.583047	-3.1452	-0.071103	-1.76258	-2.54642	-1.14955	-1.64749	0.207425	0.285713	-0.443514	-0.148981	-2.53636	-2.20023	
0.584082	5.49469	0	5	-1.66093	-1.99478	-2.19614	-1.07259	-2.84387	-2.97285	-0.713491	-2.31543	1.25437	-0.788728	0.713664	-1.96672	0.0350767	0.0050005	-0.610575	-1.41582	-3.0884	2.01737	-1.18356	-0.581065	-3.14891	-0.068682	-1.76085	-2.55131	-1.14861	-1.65015	0.212684	0.280161	-0.446268	-0.154738	-2.53425	-2.20618	
0.586834	5.49927	0	5	-1.66376	-1.99703	-2.19815	-1.0669	-2.84605	-2.97473	-0.702622	-2.31169	1.24647	-0.783563	0.726602	-1.97056	0.02605	0.012542	-0.61291	-1.41595	-3.08634	2.01767	-1.18659	-0.579083	-3.15261	-0.066261	-1.75912	-2.5562	-1.14766	-1.65282	0.217943	0.274608	-0.449022	-0.160496	-2.53214	-2.21214	
0.591862	5.49927	0	5	-1.66942	-1.99128	-2.1927	-1.0639	-2.85344	-2.9699	-0.691732	-2.30795	1.2525	-0.789145	0.740346	-1.96568	0.0295623	0.008604	-0.605962	-1.42213	-3.07865	2.01428	-1.18431	-0.578928	-3.15414	-0.0619613	-1.7613	-2.54162	-1.14543	-1.64813	0.219696	0.288289	-0.437272	-0.153051	-2.54006	-2.20696	
0.600188	5.49164	0	5	-1.67508	-1.98553	-2.18724	-1.06091	-2.86083	-2.96507	-0.680841	-2.3042	1.25852	-0.794727	0.754089	-1.9608	0.0330745	0.004666	-0.599013	-1.42832	-3.07096	2.0109	-1.18203	-0.578773	-3.15566	-0.0576615	-1.76347	-2.52703	-1.1432	-1.64343	0.221449	0.301971	-0.425522	-0.145605	-2.54798	-2.20179	
0.61275	5.49011	0	5	-1.68074	-1.97978	-2.18179	-1.05791	-2.86822	-2.96024	-0.669951	-2.30045	1.26455	-0.800309	0.767833	-1.95592	0.0365868	0.000728	-0.592065	-1.43451	-3.06327	2.00752	-1.17976	-0.578618	-3.15718	-0.0533617	-1.76564	-2.51245	-1.14097	-1.63873	0.223202	0.315652	-0.413772	-0.13816	-2.5559	-2.19661	
0.629455	5.49011	0	5	-1.6864	-1.97403	-2.17634	-1.05491	-2.87561	-2.95541	-0.659061	-2.29671	1.27057	-0.805891	0.781577	-1.95104	0.040099	-0.00321	-0.585117	-1.4407	-3.05558	2.00413	-1.17748	-0.578463	-3.1587	-0.049062	-1.76781	-2.49787	-1.13874	-1.63404	0.224955	0.329333	-0.402022	-0.130715	-2.56382	-2.19144	
0.649529	5.49316	0	5	-1.6864	-1.97403	-2.18037	-1.04351	-2.8793	-2.953	-0.657763	-2.28886	1.27773	-0.80892	0.785742	-1.91898	0.0448573	-0.004676	-0.58038	-1.4339	-3.03584	1.99123	-1.16533	-0.5864	-3.14758	-0.0563285	-1.76051	-2.47624	-1.13712	-1.6166	0.233722	0.351225	-0.405826	-0.0928125	-2.54848	-2.18313	
0.672184	5.48401	0	5	-1.6864	-1.97403	-2.1844	-1.03212	-2.88299	-2.95059	-0.656465	-2.281	1.28488	-0.811949	0.789907	-1.88693	0.0496155	-0.006142	-0.575643	-1.4271	-3.01609	1.97833	-1.15319	-0.594337	-3.13646	-0.063595	-1.75321	-2.45461	-1.1355	-1.59917	0.242489	0.373116	-0.409631	-0.05491	-2.53314	-2.17482	
0.696634	5.48096	0	5	-1.6864	-1.97403	-2.18843	-1.02072	-2.88669	-2.94817	-0.655166	-2.27315	1.29203	-0.814978	0.794072	-1.85487	0.0543737	-0.007608	-0.570905	-1.42029	-2.99635	1.96543	-1.14104	-0.602274	-3.12534	-0.0708615	-1.74591	-2.43298	-1.13388	-1.58174	0.251256	0.395008	-0.413435	-0.0170075	-2.5178	-2.16651	
